SpectraSuite Data File
++++++++++++++++++++++++++++++++++++
Date: Wed Jul 25 10:40:48 HST 2007
User: guest
Dark Spectrum Present: Yes
Reference Spectrum Present: No
Number of Sampled Component Spectra: 1
Spectrometers: USB4E01242
Integration Time (usec): 100000 (USB4E01242)
Spectra Averaged: 1 (USB4E01242)
Boxcar Smoothing: 10 (USB4E01242)
Correct for Electrical Dark: No (USB4E01242)
Strobe/Lamp Enabled: No (USB4E01242)
Correct for Detector Non-linearity: No (USB4E01242)
Correct for Stray Light: No (USB4E01242)
Number of Pixels in Processed Spectrum: 3648
>>>>>Begin Processed Spectral Data<<<<<
177.33	-0.0000E00
177.55	-0.0000E00
177.77	-0.0000E00
177.99	-0.0000E00
178.21	-0.0000E00
178.43	-0.0000E00
178.64	-0.0000E00
178.86	-0.0000E00
179.08	-0.0000E00
179.30	-0.0000E00
179.52	-0.0000E00
179.74	-0.0000E00
179.96	-0.0000E00
180.18	-0.0000E00
180.39	-0.0000E00
180.61	-0.0000E00
180.83	-0.0000E00
181.05	-0.0000E00
181.27	-0.0000E00
181.49	-0.0000E00
181.71	-0.0000E00
181.92	-0.0000E00
182.14	-0.0000E00
182.36	-0.0000E00
182.58	-0.0000E00
182.80	-0.0000E00
183.02	-0.0000E00
183.23	-0.0000E00
183.45	-0.0000E00
183.67	-0.0000E00
183.89	-0.0000E00
184.11	0.0000E00
184.33	-0.0000E00
184.55	-0.0000E00
184.76	-0.0000E00
184.98	-0.0000E00
185.20	-0.0000E00
185.42	-0.0000E00
185.64	-0.0000E00
185.86	-0.0000E00
186.07	-0.0000E00
186.29	-0.0000E00
186.51	-0.0000E00
186.73	-0.0000E00
186.95	-0.0000E00
187.17	-0.0000E00
187.38	-0.0000E00
187.60	-0.0000E00
187.82	-0.0000E00
188.04	-0.0000E00
188.26	-0.0000E00
188.47	-0.0000E00
188.69	-0.0000E00
188.91	-0.0000E00
189.13	-0.0000E00
189.35	-0.0000E00
189.57	-0.0000E00
189.78	-0.0000E00
190.00	-0.0000E00
190.22	-0.0000E00
190.44	-0.0000E00
190.66	-0.0000E00
190.87	-0.0000E00
191.09	-0.0000E00
191.31	-0.0000E00
191.53	-0.0000E00
191.75	-0.0000E00
191.97	-0.0000E00
192.18	-0.0000E00
192.40	-0.0000E00
192.62	-0.0000E00
192.84	-0.0000E00
193.06	-0.0000E00
193.27	-0.0000E00
193.49	-0.0000E00
193.71	-0.0000E00
193.93	-0.0000E00
194.15	-0.0000E00
194.36	-0.0000E00
194.58	-0.0000E00
194.80	-0.0000E00
195.02	-0.0000E00
195.23	-0.0000E00
195.45	-0.0000E00
195.67	-0.0000E00
195.89	-0.0000E00
196.11	-0.0000E00
196.32	-0.0000E00
196.54	-0.0000E00
196.76	-0.0000E00
196.98	-0.0000E00
197.20	-0.0000E00
197.41	-0.0000E00
197.63	-0.0000E00
197.85	-0.0000E00
198.07	-0.0000E00
198.28	-0.0000E00
198.50	-0.0000E00
198.72	-0.0000E00
198.94	-0.0000E00
199.16	-0.0000E00
199.37	-0.0000E00
199.59	-0.0000E00
199.81	-0.0000E00
200.03	-0.0000E00
200.24	-0.0000E00
200.46	-0.0000E00
200.68	-0.0000E00
200.90	-0.0000E00
201.11	-0.0000E00
201.33	-0.0000E00
201.55	-0.0000E00
201.77	-0.0000E00
201.98	-0.0000E00
202.20	-0.0000E00
202.42	-0.0000E00
202.64	-0.0000E00
202.86	-0.0000E00
203.07	-0.0000E00
203.29	-0.0000E00
203.51	-0.0000E00
203.73	-0.0000E00
203.94	-0.0000E00
204.16	-0.0000E00
204.38	-0.0000E00
204.60	-0.0000E00
204.81	-0.0000E00
205.03	-0.0000E00
205.25	-0.0000E00
205.46	-0.0000E00
205.68	-0.0000E00
205.90	-0.0000E00
206.12	-0.0000E00
206.33	-0.0000E00
206.55	0.0000E00
206.77	-0.0000E00
206.99	-0.0000E00
207.20	-0.0000E00
207.42	-0.0000E00
207.64	-0.0000E00
207.86	-0.0000E00
208.07	-0.0000E00
208.29	-0.0000E00
208.51	-0.0000E00
208.72	-0.0000E00
208.94	-0.0000E00
209.16	-0.0000E00
209.38	-0.0000E00
209.59	-0.0000E00
209.81	-0.0000E00
210.03	-0.0000E00
210.25	-0.0000E00
210.46	-0.0000E00
210.68	-0.0000E00
210.90	-0.0000E00
211.11	-0.0000E00
211.33	-0.0000E00
211.55	-0.0000E00
211.77	-0.0000E00
211.98	-0.0000E00
212.20	-0.0000E00
212.42	-0.0000E00
212.63	-0.0000E00
212.85	-0.0000E00
213.07	-0.0000E00
213.29	-0.0000E00
213.50	-0.0000E00
213.72	-0.0000E00
213.94	-0.0000E00
214.15	-0.0000E00
214.37	-0.0000E00
214.59	-0.0000E00
214.80	-0.0000E00
215.02	-0.0000E00
215.24	-0.0000E00
215.45	-0.0000E00
215.67	-0.0000E00
215.89	-0.0000E00
216.11	-0.0000E00
216.32	-0.0000E00
216.54	-0.0000E00
216.76	-0.0000E00
216.97	-0.0000E00
217.19	-0.0000E00
217.41	-0.0000E00
217.62	-0.0000E00
217.84	-0.0000E00
218.06	-0.0000E00
218.27	-0.0000E00
218.49	0.0000E00
218.71	-0.0000E00
218.92	-0.0000E00
219.14	-0.0000E00
219.36	-0.0000E00
219.57	-0.0000E00
219.79	-0.0000E00
220.01	-0.0000E00
220.22	-0.0000E00
220.44	-0.0000E00
220.66	-0.0000E00
220.88	-0.0000E00
221.09	-0.0000E00
221.31	-0.0000E00
221.53	-0.0000E00
221.74	-0.0000E00
221.96	-0.0000E00
222.17	-0.0000E00
222.39	-0.0000E00
222.61	-0.0000E00
222.82	0.0000E00
223.04	-0.0000E00
223.26	-0.0000E00
223.47	-0.0000E00
223.69	-0.0000E00
223.91	-0.0000E00
224.12	-0.0000E00
224.34	-0.0000E00
224.56	-0.0000E00
224.77	-0.0000E00
224.99	-0.0000E00
225.21	-0.0000E00
225.42	-0.0000E00
225.64	-0.0000E00
225.86	-0.0000E00
226.07	-0.0000E00
226.29	-0.0000E00
226.50	-0.0000E00
226.72	-0.0000E00
226.94	-0.0000E00
227.15	-0.0000E00
227.37	-0.0000E00
227.59	-0.0000E00
227.80	-0.0000E00
228.02	-0.0000E00
228.24	-0.0000E00
228.45	-0.0000E00
228.67	-0.0000E00
228.88	-0.0000E00
229.10	-0.0000E00
229.32	-0.0000E00
229.53	-0.0000E00
229.75	-0.0000E00
229.97	-0.0000E00
230.18	-0.0000E00
230.40	-0.0000E00
230.61	-0.0000E00
230.83	-0.0000E00
231.05	-0.0000E00
231.26	0.0000E00
231.48	-0.0000E00
231.70	-0.0000E00
231.91	-0.0000E00
232.13	-0.0000E00
232.34	-0.0000E00
232.56	-0.0000E00
232.78	-0.0000E00
232.99	-0.0000E00
233.21	-0.0000E00
233.42	-0.0000E00
233.64	-0.0000E00
233.86	-0.0000E00
234.07	-0.0000E00
234.29	-0.0000E00
234.50	-0.0000E00
234.72	-0.0000E00
234.94	-0.0000E00
235.15	-0.0000E00
235.37	-0.0000E00
235.58	-0.0000E00
235.80	-0.0000E00
236.02	0.0000E00
236.23	-0.0000E00
236.45	-0.0000E00
236.66	-0.0000E00
236.88	-0.0000E00
237.10	-0.0000E00
237.31	-0.0000E00
237.53	-0.0000E00
237.74	-0.0000E00
237.96	-0.0000E00
238.17	-0.0000E00
238.39	-0.0000E00
238.61	-0.0000E00
238.82	-0.0000E00
239.04	-0.0000E00
239.25	-0.0000E00
239.47	-0.0000E00
239.69	-0.0000E00
239.90	-0.0000E00
240.12	-0.0000E00
240.33	-0.0000E00
240.55	-0.0000E00
240.76	-0.0000E00
240.98	-0.0000E00
241.20	-0.0000E00
241.41	-0.0000E00
241.63	-0.0000E00
241.84	-0.0000E00
242.06	-0.0000E00
242.27	-0.0000E00
242.49	-0.0000E00
242.70	-0.0000E00
242.92	-0.0000E00
243.14	0.0000E00
243.35	-0.0000E00
243.57	-0.0000E00
243.78	-0.0000E00
244.00	-0.0000E00
244.21	-0.0000E00
244.43	-0.0000E00
244.64	-0.0000E00
244.86	-0.0000E00
245.08	-0.0000E00
245.29	-0.0000E00
245.51	-0.0000E00
245.72	-0.0000E00
245.94	-0.0000E00
246.15	-0.0000E00
246.37	-0.0000E00
246.58	-0.0000E00
246.80	-0.0000E00
247.01	-0.0000E00
247.23	-0.0000E00
247.45	-0.0000E00
247.66	-0.0000E00
247.88	-0.0000E00
248.09	-0.0000E00
248.31	-0.0000E00
248.52	-0.0000E00
248.74	-0.0000E00
248.95	0.0000E00
249.17	-0.0000E00
249.38	-0.0000E00
249.60	-0.0000E00
249.81	-0.0000E00
250.03	-0.0000E00
250.24	-0.0000E00
250.46	0.0000E00
250.67	-0.0000E00
250.89	-0.0000E00
251.10	-0.0000E00
251.32	-0.0000E00
251.53	-0.0000E00
251.75	-0.0000E00
251.97	-0.0000E00
252.18	-0.0000E00
252.40	-0.0000E00
252.61	0.0000E00
252.83	-0.0000E00
253.04	-0.0000E00
253.26	-0.0000E00
253.47	-0.0000E00
253.69	-0.0000E00
253.90	-0.0000E00
254.12	-0.0000E00
254.33	-0.0000E00
254.55	-0.0000E00
254.76	-0.0000E00
254.98	0.0000E00
255.19	-0.0000E00
255.41	-0.0000E00
255.62	-0.0000E00
255.84	-0.0000E00
256.05	-0.0000E00
256.27	-0.0000E00
256.48	-0.0000E00
256.70	-0.0000E00
256.91	-0.0000E00
257.13	-0.0000E00
257.34	-0.0000E00
257.55	-0.0000E00
257.77	-0.0000E00
257.98	-0.0000E00
258.20	-0.0000E00
258.41	-0.0000E00
258.63	-0.0000E00
258.84	-0.0000E00
259.06	-0.0000E00
259.27	-0.0000E00
259.49	0.0000E00
259.70	0.0000E00
259.92	-0.0000E00
260.13	-0.0000E00
260.35	-0.0000E00
260.56	-0.0000E00
260.78	-0.0000E00
260.99	-0.0000E00
261.21	-0.0000E00
261.42	-0.0000E00
261.63	-0.0000E00
261.85	-0.0000E00
262.06	-0.0000E00
262.28	-0.0000E00
262.49	-0.0000E00
262.71	-0.0000E00
262.92	-0.0000E00
263.14	-0.0000E00
263.35	-0.0000E00
263.57	-0.0000E00
263.78	-0.0000E00
264.00	-0.0000E00
264.21	-0.0000E00
264.42	-0.0000E00
264.64	-0.0000E00
264.85	-0.0000E00
265.07	-0.0000E00
265.28	-0.0000E00
265.50	-0.0000E00
265.71	-0.0000E00
265.93	-0.0000E00
266.14	-0.0000E00
266.35	0.0000E00
266.57	-0.0000E00
266.78	-0.0000E00
267.00	-0.0000E00
267.21	-0.0000E00
267.43	-0.0000E00
267.64	-0.0000E00
267.85	-0.0000E00
268.07	-0.0000E00
268.28	-0.0000E00
268.50	-0.0000E00
268.71	-0.0000E00
268.93	-0.0000E00
269.14	-0.0000E00
269.35	-0.0000E00
269.57	-0.0000E00
269.78	-0.0000E00
270.00	-0.0000E00
270.21	-0.0000E00
270.43	-0.0000E00
270.64	-0.0000E00
270.85	-0.0000E00
271.07	-0.0000E00
271.28	-0.0000E00
271.50	-0.0000E00
271.71	-0.0000E00
271.92	-0.0000E00
272.14	-0.0000E00
272.35	-0.0000E00
272.57	-0.0000E00
272.78	-0.0000E00
272.99	-0.0000E00
273.21	-0.0000E00
273.42	-0.0000E00
273.64	-0.0000E00
273.85	-0.0000E00
274.07	-0.0000E00
274.28	-0.0000E00
274.49	-0.0000E00
274.71	-0.0000E00
274.92	-0.0000E00
275.13	-0.0000E00
275.35	-0.0000E00
275.56	-0.0000E00
275.78	-0.0000E00
275.99	-0.0000E00
276.20	-0.0000E00
276.42	-0.0000E00
276.63	-0.0000E00
276.85	-0.0000E00
277.06	-0.0000E00
277.27	-0.0000E00
277.49	-0.0000E00
277.70	-0.0000E00
277.92	-0.0000E00
278.13	-0.0000E00
278.34	-0.0000E00
278.56	-0.0000E00
278.77	-0.0000E00
278.98	-0.0000E00
279.20	-0.0000E00
279.41	-0.0000E00
279.63	-0.0000E00
279.84	-0.0000E00
280.05	-0.0000E00
280.27	-0.0000E00
280.48	-0.0000E00
280.69	-0.0000E00
280.91	-0.0000E00
281.12	-0.0000E00
281.33	-0.0000E00
281.55	-0.0000E00
281.76	-0.0000E00
281.98	-0.0000E00
282.19	-0.0000E00
282.40	-0.0000E00
282.62	-0.0000E00
282.83	-0.0000E00
283.04	-0.0000E00
283.26	0.0000E00
283.47	-0.0000E00
283.68	-0.0000E00
283.90	-0.0000E00
284.11	-0.0000E00
284.32	-0.0000E00
284.54	-0.0000E00
284.75	-0.0000E00
284.96	-0.0000E00
285.18	-0.0000E00
285.39	-0.0000E00
285.60	-0.0000E00
285.82	-0.0000E00
286.03	-0.0000E00
286.24	-0.0000E00
286.46	0.0000E00
286.67	-0.0000E00
286.88	-0.0000E00
287.10	-0.0000E00
287.31	-0.0000E00
287.52	-0.0000E00
287.74	-0.0000E00
287.95	-0.0000E00
288.16	-0.0000E00
288.38	-0.0000E00
288.59	-0.0000E00
288.80	-0.0000E00
289.02	-0.0000E00
289.23	-0.0000E00
289.44	-0.0000E00
289.66	-0.0000E00
289.87	-0.0000E00
290.08	-0.0000E00
290.30	-0.0000E00
290.51	-0.0000E00
290.72	-0.0000E00
290.94	0.0000E00
291.15	-0.0000E00
291.36	0.0000E00
291.57	-0.0000E00
291.79	-0.0000E00
292.00	-0.0000E00
292.21	-0.0000E00
292.43	-0.0000E00
292.64	-0.0000E00
292.85	-0.0000E00
293.07	-0.0000E00
293.28	-0.0000E00
293.49	-0.0000E00
293.70	0.0000E00
293.92	-0.0000E00
294.13	-0.0000E00
294.34	-0.0000E00
294.56	-0.0000E00
294.77	-0.0000E00
294.98	-0.0000E00
295.20	-0.0000E00
295.41	-0.0000E00
295.62	-0.0000E00
295.83	-0.0000E00
296.05	0.0000E00
296.26	-0.0000E00
296.47	-0.0000E00
296.69	-0.0000E00
296.90	-0.0000E00
297.11	-0.0000E00
297.32	-0.0000E00
297.54	-0.0000E00
297.75	-0.0000E00
297.96	-0.0000E00
298.17	-0.0000E00
298.39	-0.0000E00
298.60	-0.0000E00
298.81	-0.0000E00
299.03	-0.0000E00
299.24	-0.0000E00
299.45	-0.0000E00
299.66	-0.0000E00
299.88	-0.0000E00
300.09	-6.2771E-03
300.30	-1.0860E-02
300.51	-1.3506E-03
300.73	-1.1130E-02
300.94	-7.0009E-03
301.15	-2.6710E-03
301.36	-1.1509E-02
301.58	-7.7616E-03
301.79	8.4215E-03
302.00	-5.1901E-03
302.21	-7.3340E-03
302.43	1.3721E-03
302.64	-7.2282E-03
302.85	1.8407E-03
303.06	-9.4853E-03
303.28	1.0027E-03
303.49	-6.1589E-03
303.70	7.5742E-03
303.91	-2.9731E-03
304.13	-5.3299E-03
304.34	-8.8172E-04
304.55	8.9545E-03
304.76	-6.3367E-03
304.98	-2.0044E-03
305.19	8.1051E-03
305.40	-3.0478E-03
305.61	6.4579E-03
305.82	4.5471E-04
306.04	9.2575E-03
306.25	-2.2112E-03
306.46	1.2455E-02
306.67	1.5620E-03
306.89	3.8794E-03
307.10	1.1656E-02
307.31	1.0779E-02
307.52	8.0264E-03
307.74	1.6715E-02
307.95	1.6880E-02
308.16	1.4505E-04
308.37	1.1133E-02
308.58	9.1453E-03
308.80	1.7381E-02
309.01	1.4829E-02
309.22	4.2835E-03
309.43	9.5059E-03
309.64	1.8508E-02
309.86	2.5371E-02
310.07	1.6765E-02
310.28	2.0677E-02
310.49	2.2568E-02
310.70	1.4153E-02
310.92	2.4738E-02
311.13	2.0654E-02
311.34	2.3045E-02
311.55	2.4553E-02
311.76	2.3831E-02
311.98	3.7105E-02
312.19	2.4991E-02
312.40	2.0543E-02
312.61	2.5049E-02
312.82	3.1814E-02
313.04	2.4289E-02
313.25	3.3253E-02
313.46	2.7046E-02
313.67	2.7857E-02
313.88	3.1098E-02
314.10	2.8772E-02
314.31	2.9552E-02
314.52	3.0686E-02
314.73	3.3106E-02
314.94	4.1021E-02
315.16	4.3015E-02
315.37	5.0730E-02
315.58	3.4888E-02
315.79	4.3197E-02
316.00	4.6374E-02
316.21	5.1553E-02
316.43	3.4636E-02
316.64	4.1106E-02
316.85	3.8957E-02
317.06	4.7354E-02
317.27	5.2841E-02
317.48	4.4490E-02
317.70	4.8538E-02
317.91	4.7408E-02
318.12	5.6531E-02
318.33	4.5096E-02
318.54	4.8973E-02
318.75	5.1748E-02
318.97	6.0724E-02
319.18	5.3926E-02
319.39	5.1497E-02
319.60	5.3784E-02
319.81	5.9986E-02
320.02	5.2912E-02
320.24	5.4339E-02
320.45	5.9299E-02
320.66	4.8836E-02
320.87	5.6616E-02
321.08	6.4474E-02
321.29	6.3983E-02
321.50	5.7097E-02
321.72	5.4243E-02
321.93	6.7941E-02
322.14	5.8702E-02
322.35	6.9996E-02
322.56	7.1841E-02
322.77	7.6766E-02
322.98	6.4794E-02
323.20	7.6738E-02
323.41	6.2186E-02
323.62	6.3009E-02
323.83	7.3777E-02
324.04	6.6975E-02
324.25	6.7788E-02
324.46	7.4362E-02
324.67	7.7478E-02
324.89	7.4909E-02
325.10	7.5065E-02
325.31	8.9154E-02
325.52	8.4549E-02
325.73	7.8376E-02
325.94	8.3594E-02
326.15	7.7799E-02
326.36	9.6810E-02
326.58	1.0145E-01
326.79	9.9365E-02
327.00	8.0147E-02
327.21	1.0012E-01
327.42	1.0202E-01
327.63	1.0309E-01
327.84	1.0034E-01
328.05	1.0753E-01
328.26	8.9446E-02
328.48	1.0301E-01
328.69	1.0923E-01
328.90	1.0399E-01
329.11	1.0554E-01
329.32	1.0722E-01
329.53	1.0148E-01
329.74	1.0782E-01
329.95	1.1547E-01
330.16	1.1369E-01
330.37	1.0745E-01
330.59	1.2615E-01
330.80	1.1497E-01
331.01	1.1684E-01
331.22	1.1567E-01
331.43	1.0692E-01
331.64	1.0678E-01
331.85	1.2380E-01
332.06	1.2006E-01
332.27	1.0829E-01
332.48	1.2235E-01
332.69	1.2645E-01
332.91	1.2055E-01
333.12	1.1894E-01
333.33	1.3210E-01
333.54	1.0997E-01
333.75	1.0562E-01
333.96	1.1071E-01
334.17	1.0793E-01
334.38	1.0968E-01
334.59	1.1584E-01
334.80	1.1761E-01
335.01	1.1529E-01
335.22	1.0983E-01
335.43	1.0805E-01
335.64	1.1176E-01
335.86	1.1583E-01
336.07	1.1545E-01
336.28	1.0257E-01
336.49	1.1749E-01
336.70	1.0723E-01
336.91	1.0707E-01
337.12	1.0504E-01
337.33	1.2019E-01
337.54	1.1085E-01
337.75	1.0967E-01
337.96	1.2193E-01
338.17	1.2289E-01
338.38	1.1211E-01
338.59	1.2734E-01
338.80	1.1126E-01
339.01	1.3012E-01
339.22	1.2983E-01
339.43	1.3119E-01
339.65	1.2513E-01
339.86	1.2053E-01
340.07	1.1915E-01
340.28	1.2689E-01
340.49	1.2736E-01
340.70	1.2926E-01
340.91	1.1895E-01
341.12	1.1503E-01
341.33	1.2676E-01
341.54	1.3102E-01
341.75	1.2216E-01
341.96	1.2523E-01
342.17	1.2821E-01
342.38	1.2153E-01
342.59	1.2451E-01
342.80	1.1606E-01
343.01	1.2184E-01
343.22	1.2106E-01
343.43	1.1738E-01
343.64	1.1279E-01
343.85	1.2157E-01
344.06	1.0838E-01
344.27	1.1954E-01
344.48	1.2826E-01
344.69	1.2008E-01
344.90	1.2132E-01
345.11	1.1752E-01
345.32	1.1611E-01
345.53	1.0830E-01
345.74	1.2323E-01
345.95	1.1046E-01
346.16	1.1867E-01
346.37	1.1834E-01
346.58	1.1846E-01
346.79	1.1181E-01
347.00	1.2233E-01
347.21	1.2369E-01
347.42	1.1545E-01
347.63	1.0992E-01
347.84	1.1933E-01
348.05	1.2482E-01
348.26	1.1867E-01
348.47	1.2319E-01
348.68	1.2211E-01
348.89	1.1203E-01
349.10	1.2186E-01
349.31	1.2605E-01
349.52	1.2108E-01
349.73	1.2411E-01
349.94	1.2541E-01
350.15	1.2030E-01
350.36	1.3576E-01
350.57	1.3375E-01
350.78	1.3648E-01
350.99	1.3681E-01
351.20	1.3206E-01
351.41	1.3856E-01
351.62	1.3451E-01
351.83	1.3675E-01
352.04	1.3688E-01
352.25	1.4342E-01
352.46	1.3968E-01
352.67	1.3688E-01
352.88	1.5033E-01
353.09	1.2866E-01
353.30	1.4015E-01
353.51	1.4235E-01
353.72	1.5058E-01
353.93	1.4078E-01
354.14	1.3728E-01
354.35	1.5092E-01
354.56	1.4092E-01
354.77	1.5398E-01
354.98	1.3283E-01
355.19	1.3774E-01
355.39	1.3952E-01
355.60	1.3594E-01
355.81	1.3943E-01
356.02	1.4233E-01
356.23	1.2938E-01
356.44	1.2592E-01
356.65	1.4023E-01
356.86	1.3310E-01
357.07	1.3174E-01
357.28	1.4022E-01
357.49	1.3642E-01
357.70	1.4046E-01
357.91	1.2958E-01
358.12	1.3013E-01
358.33	1.3982E-01
358.54	1.4361E-01
358.75	1.3961E-01
358.96	1.4807E-01
359.16	1.3610E-01
359.37	1.5486E-01
359.58	1.5152E-01
359.79	1.4914E-01
360.00	1.5080E-01
360.21	1.5536E-01
360.42	1.5413E-01
360.63	1.7460E-01
360.84	1.6598E-01
361.05	1.5188E-01
361.26	1.6266E-01
361.47	1.7240E-01
361.68	1.6479E-01
361.88	1.7138E-01
362.09	1.6616E-01
362.30	1.7527E-01
362.51	1.7371E-01
362.72	1.8742E-01
362.93	1.7958E-01
363.14	1.8283E-01
363.35	1.8077E-01
363.56	1.8115E-01
363.77	1.9433E-01
363.98	1.9238E-01
364.18	2.0142E-01
364.39	2.0090E-01
364.60	1.9694E-01
364.81	2.0050E-01
365.02	2.0509E-01
365.23	2.0965E-01
365.44	2.1102E-01
365.65	2.1122E-01
365.86	2.0270E-01
366.07	2.2136E-01
366.27	2.1563E-01
366.48	2.2067E-01
366.69	2.1674E-01
366.90	2.2496E-01
367.11	2.2211E-01
367.32	2.2405E-01
367.53	2.1820E-01
367.74	2.1513E-01
367.95	2.1557E-01
368.15	2.2015E-01
368.36	2.2557E-01
368.57	2.1221E-01
368.78	2.3149E-01
368.99	2.1958E-01
369.20	2.1892E-01
369.41	2.2500E-01
369.62	2.1982E-01
369.82	2.2826E-01
370.03	2.1932E-01
370.24	2.2128E-01
370.45	2.1558E-01
370.66	2.0902E-01
370.87	2.0689E-01
371.08	2.0881E-01
371.28	2.0666E-01
371.49	2.0645E-01
371.70	2.0437E-01
371.91	2.0366E-01
372.12	1.9699E-01
372.33	1.9581E-01
372.54	2.0004E-01
372.74	1.9782E-01
372.95	1.8600E-01
373.16	2.0005E-01
373.37	2.0157E-01
373.58	1.8633E-01
373.79	1.9843E-01
374.00	1.9503E-01
374.20	2.0687E-01
374.41	2.0557E-01
374.62	2.0094E-01
374.83	2.0335E-01
375.04	2.0787E-01
375.25	2.1201E-01
375.45	1.9842E-01
375.66	2.1732E-01
375.87	2.1733E-01
376.08	2.2238E-01
376.29	2.2270E-01
376.50	2.2227E-01
376.70	2.2152E-01
376.91	2.2801E-01
377.12	2.3019E-01
377.33	2.1980E-01
377.54	2.2263E-01
377.75	2.3266E-01
377.95	2.2697E-01
378.16	2.3128E-01
378.37	2.2397E-01
378.58	2.3176E-01
378.79	2.1675E-01
379.00	2.3040E-01
379.20	2.1807E-01
379.41	2.1977E-01
379.62	2.2010E-01
379.83	2.1293E-01
380.04	2.1309E-01
380.24	2.0579E-01
380.45	1.9765E-01
380.66	1.9807E-01
380.87	2.0111E-01
381.08	2.0091E-01
381.28	1.9063E-01
381.49	1.9560E-01
381.70	1.8616E-01
381.91	1.8803E-01
382.12	1.9121E-01
382.32	1.8379E-01
382.53	1.8793E-01
382.74	1.7970E-01
382.95	1.8392E-01
383.16	1.8652E-01
383.36	1.7430E-01
383.57	1.8693E-01
383.78	1.9268E-01
383.99	1.8561E-01
384.20	1.8923E-01
384.40	1.9194E-01
384.61	2.0018E-01
384.82	2.0416E-01
385.03	2.0014E-01
385.23	2.0404E-01
385.44	2.0655E-01
385.65	2.1253E-01
385.86	2.0508E-01
386.07	2.2470E-01
386.27	2.0558E-01
386.48	2.1543E-01
386.69	2.2363E-01
386.90	2.0808E-01
387.10	2.2059E-01
387.31	2.3049E-01
387.52	2.2653E-01
387.73	2.3382E-01
387.94	2.4035E-01
388.14	2.2865E-01
388.35	2.3539E-01
388.56	2.5295E-01
388.77	2.4680E-01
388.97	2.4941E-01
389.18	2.5586E-01
389.39	2.4640E-01
389.60	2.4875E-01
389.80	2.5520E-01
390.01	2.5137E-01
390.22	2.5021E-01
390.43	2.3817E-01
390.63	2.4091E-01
390.84	2.3919E-01
391.05	2.4890E-01
391.26	2.3771E-01
391.46	2.3541E-01
391.67	2.3362E-01
391.88	2.2352E-01
392.09	2.2244E-01
392.29	2.3343E-01
392.50	2.2488E-01
392.71	2.2719E-01
392.92	2.2807E-01
393.12	2.2521E-01
393.33	2.2807E-01
393.54	2.2001E-01
393.74	2.1444E-01
393.95	2.1886E-01
394.16	2.2784E-01
394.37	2.2254E-01
394.57	2.2464E-01
394.78	2.3248E-01
394.99	2.3130E-01
395.19	2.3323E-01
395.40	2.3593E-01
395.61	2.3877E-01
395.82	2.5004E-01
396.02	2.4790E-01
396.23	2.5843E-01
396.44	2.6400E-01
396.65	2.6346E-01
396.85	2.7644E-01
397.06	2.7889E-01
397.27	2.8830E-01
397.47	2.9909E-01
397.68	3.0016E-01
397.89	3.0353E-01
398.09	3.0873E-01
398.30	3.2138E-01
398.51	3.2144E-01
398.72	3.3499E-01
398.92	3.4723E-01
399.13	3.5336E-01
399.34	3.6273E-01
399.54	3.6885E-01
399.75	3.6913E-01
399.96	3.6647E-01
400.16	3.7021E-01
400.37	3.8091E-01
400.58	3.8072E-01
400.78	3.8527E-01
400.99	3.8329E-01
401.20	3.9229E-01
401.41	3.9100E-01
401.61	3.8448E-01
401.82	3.9119E-01
402.03	3.8622E-01
402.23	3.8570E-01
402.44	3.9362E-01
402.65	3.8904E-01
402.85	3.9069E-01
403.06	3.8970E-01
403.27	3.9221E-01
403.47	3.8944E-01
403.68	3.8392E-01
403.89	3.8948E-01
404.09	3.8366E-01
404.30	3.7755E-01
404.51	3.8879E-01
404.71	3.8763E-01
404.92	3.9440E-01
405.13	3.7756E-01
405.33	3.8447E-01
405.54	3.8601E-01
405.75	3.8839E-01
405.95	3.8793E-01
406.16	3.7850E-01
406.37	3.8915E-01
406.57	3.9067E-01
406.78	3.9522E-01
406.99	3.9375E-01
407.19	3.9834E-01
407.40	4.0350E-01
407.60	4.0173E-01
407.81	4.0197E-01
408.02	3.9672E-01
408.22	3.9980E-01
408.43	4.0908E-01
408.64	4.0785E-01
408.84	4.0704E-01
409.05	4.0033E-01
409.26	4.1319E-01
409.46	4.1669E-01
409.67	4.0951E-01
409.87	4.1554E-01
410.08	4.1497E-01
410.29	4.2327E-01
410.49	4.1003E-01
410.70	4.2189E-01
410.91	4.2035E-01
411.11	4.2692E-01
411.32	4.2477E-01
411.52	4.1619E-01
411.73	4.2942E-01
411.94	4.2957E-01
412.14	4.3281E-01
412.35	4.2733E-01
412.56	4.3552E-01
412.76	4.3542E-01
412.97	4.3047E-01
413.17	4.3440E-01
413.38	4.4008E-01
413.59	4.3130E-01
413.79	4.3451E-01
414.00	4.3801E-01
414.20	4.3994E-01
414.41	4.3010E-01
414.62	4.3858E-01
414.82	4.3342E-01
415.03	4.2715E-01
415.23	4.3755E-01
415.44	4.2941E-01
415.65	4.3594E-01
415.85	4.3057E-01
416.06	4.3749E-01
416.26	4.3316E-01
416.47	4.3462E-01
416.68	4.3876E-01
416.88	4.4109E-01
417.09	4.2328E-01
417.29	4.3348E-01
417.50	4.3811E-01
417.71	4.3603E-01
417.91	4.3426E-01
418.12	4.3330E-01
418.32	4.4132E-01
418.53	4.4072E-01
418.73	4.3448E-01
418.94	4.3530E-01
419.15	4.3432E-01
419.35	4.4602E-01
419.56	4.4041E-01
419.76	4.3175E-01
419.97	4.4634E-01
420.17	4.4190E-01
420.38	4.3148E-01
420.59	4.4724E-01
420.79	4.4847E-01
421.00	4.4170E-01
421.20	4.3248E-01
421.41	4.3991E-01
421.61	4.3803E-01
421.82	4.4254E-01
422.02	4.4036E-01
422.23	4.2790E-01
422.44	4.4694E-01
422.64	4.3686E-01
422.85	4.3949E-01
423.05	4.3981E-01
423.26	4.4093E-01
423.46	4.3918E-01
423.67	4.3572E-01
423.87	4.3626E-01
424.08	4.3390E-01
424.29	4.3377E-01
424.49	4.3937E-01
424.70	4.2862E-01
424.90	4.3760E-01
425.11	4.3748E-01
425.31	4.3544E-01
425.52	4.3737E-01
425.72	4.2984E-01
425.93	4.3095E-01
426.13	4.2444E-01
426.34	4.2366E-01
426.54	4.2210E-01
426.75	4.2097E-01
426.95	4.1774E-01
427.16	4.1529E-01
427.36	4.1156E-01
427.57	4.0518E-01
427.78	4.0169E-01
427.98	4.0066E-01
428.19	4.0049E-01
428.39	3.9381E-01
428.60	3.9323E-01
428.80	3.9371E-01
429.01	3.9648E-01
429.21	3.8553E-01
429.42	4.0181E-01
429.62	3.9986E-01
429.83	3.9667E-01
430.03	3.9194E-01
430.24	4.0268E-01
430.44	3.9669E-01
430.65	4.0600E-01
430.85	4.0980E-01
431.06	4.0695E-01
431.26	4.1950E-01
431.47	4.1186E-01
431.67	4.3202E-01
431.88	4.2982E-01
432.08	4.3565E-01
432.29	4.3863E-01
432.49	4.3696E-01
432.70	4.3965E-01
432.90	4.5379E-01
433.11	4.5519E-01
433.31	4.4588E-01
433.52	4.5691E-01
433.72	4.5559E-01
433.93	4.6087E-01
434.13	4.6159E-01
434.34	4.7231E-01
434.54	4.6214E-01
434.74	4.6659E-01
434.95	4.6904E-01
435.15	4.6618E-01
435.36	4.6986E-01
435.56	4.6439E-01
435.77	4.7252E-01
435.97	4.6524E-01
436.18	4.8420E-01
436.38	4.7526E-01
436.59	4.7141E-01
436.79	4.7899E-01
437.00	4.7884E-01
437.20	4.7456E-01
437.41	4.7303E-01
437.61	4.7610E-01
437.81	4.7662E-01
438.02	4.7766E-01
438.22	4.8237E-01
438.43	4.7493E-01
438.63	4.8904E-01
438.84	4.8057E-01
439.04	4.8351E-01
439.25	4.8843E-01
439.45	4.8662E-01
439.66	4.9024E-01
439.86	4.9480E-01
440.06	5.0748E-01
440.27	5.0095E-01
440.47	4.9875E-01
440.68	5.1358E-01
440.88	5.1187E-01
441.09	5.1932E-01
441.29	5.1987E-01
441.49	5.2178E-01
441.70	5.3055E-01
441.90	5.2802E-01
442.11	5.3209E-01
442.31	5.3658E-01
442.52	5.3042E-01
442.72	5.3117E-01
442.92	5.2670E-01
443.13	5.3740E-01
443.33	5.2669E-01
443.54	5.3497E-01
443.74	5.3360E-01
443.95	5.3979E-01
444.15	5.3651E-01
444.35	5.4184E-01
444.56	5.3674E-01
444.76	5.3354E-01
444.97	5.4837E-01
445.17	5.4452E-01
445.37	5.5279E-01
445.58	5.4181E-01
445.78	5.4556E-01
445.99	5.3948E-01
446.19	5.4149E-01
446.39	5.4581E-01
446.60	5.4355E-01
446.80	5.4610E-01
447.01	5.5699E-01
447.21	5.6503E-01
447.41	5.5588E-01
447.62	5.6666E-01
447.82	5.6396E-01
448.03	5.7015E-01
448.23	5.7207E-01
448.43	5.7558E-01
448.64	5.7955E-01
448.84	5.8013E-01
449.05	5.7684E-01
449.25	5.8195E-01
449.45	5.7642E-01
449.66	5.7953E-01
449.86	5.8180E-01
450.07	5.7617E-01
450.27	5.8125E-01
450.47	5.7895E-01
450.68	5.8138E-01
450.88	5.7710E-01
451.08	5.7998E-01
451.29	5.8076E-01
451.49	5.7934E-01
451.70	5.7801E-01
451.90	5.7868E-01
452.10	5.7684E-01
452.31	5.6862E-01
452.51	5.7572E-01
452.71	5.7490E-01
452.92	5.7240E-01
453.12	5.7740E-01
453.32	5.7333E-01
453.53	5.6585E-01
453.73	5.6867E-01
453.93	5.7150E-01
454.14	5.8255E-01
454.34	5.8184E-01
454.55	5.8521E-01
454.75	5.8364E-01
454.95	5.7936E-01
455.16	5.9004E-01
455.36	5.8126E-01
455.56	5.9264E-01
455.77	5.9109E-01
455.97	5.8939E-01
456.17	5.8779E-01
456.38	5.9222E-01
456.58	5.9780E-01
456.78	5.9067E-01
456.99	5.8397E-01
457.19	5.8971E-01
457.39	5.9000E-01
457.60	5.9385E-01
457.80	5.9113E-01
458.00	5.8976E-01
458.21	5.9560E-01
458.41	5.9454E-01
458.61	5.8972E-01
458.82	5.9021E-01
459.02	5.8752E-01
459.22	6.0032E-01
459.43	5.9929E-01
459.63	5.9762E-01
459.83	5.9412E-01
460.03	5.9843E-01
460.24	6.0191E-01
460.44	5.9613E-01
460.64	5.9290E-01
460.85	6.0071E-01
461.05	5.9999E-01
461.25	6.0075E-01
461.46	5.9909E-01
461.66	5.9622E-01
461.86	6.0182E-01
462.07	6.0515E-01
462.27	6.0208E-01
462.47	6.0704E-01
462.67	6.0110E-01
462.88	6.0384E-01
463.08	5.9507E-01
463.28	6.0028E-01
463.49	6.0450E-01
463.69	5.9955E-01
463.89	5.9989E-01
464.09	6.0066E-01
464.30	5.9505E-01
464.50	6.0013E-01
464.70	6.0027E-01
464.91	5.8893E-01
465.11	5.9009E-01
465.31	5.9099E-01
465.51	5.9582E-01
465.72	5.9237E-01
465.92	5.9206E-01
466.12	5.8722E-01
466.33	5.9235E-01
466.53	5.8995E-01
466.73	5.8630E-01
466.93	5.9091E-01
467.14	5.8535E-01
467.34	5.9716E-01
467.54	5.9025E-01
467.74	5.9050E-01
467.95	5.8944E-01
468.15	5.8706E-01
468.35	5.9138E-01
468.55	5.9441E-01
468.76	5.9440E-01
468.96	5.8459E-01
469.16	5.9326E-01
469.37	5.9258E-01
469.57	5.9390E-01
469.77	5.9038E-01
469.97	5.9530E-01
470.18	5.9818E-01
470.38	5.9956E-01
470.58	5.9732E-01
470.78	6.0080E-01
470.99	6.0006E-01
471.19	5.9775E-01
471.39	6.0196E-01
471.59	5.9748E-01
471.79	6.0269E-01
472.00	6.0479E-01
472.20	6.0777E-01
472.40	6.0321E-01
472.60	6.0425E-01
472.81	6.1247E-01
473.01	6.1164E-01
473.21	6.0668E-01
473.41	6.0084E-01
473.62	6.1300E-01
473.82	6.1594E-01
474.02	6.0946E-01
474.22	6.1057E-01
474.42	6.1991E-01
474.63	6.1531E-01
474.83	6.1266E-01
475.03	6.1339E-01
475.23	6.1652E-01
475.44	6.1406E-01
475.64	6.1638E-01
475.84	6.1767E-01
476.04	6.1546E-01
476.24	6.1695E-01
476.45	6.1915E-01
476.65	6.1693E-01
476.85	6.1705E-01
477.05	6.2240E-01
477.25	6.2484E-01
477.46	6.2215E-01
477.66	6.2092E-01
477.86	6.2589E-01
478.06	6.2658E-01
478.26	6.2767E-01
478.47	6.2610E-01
478.67	6.3286E-01
478.87	6.2663E-01
479.07	6.2378E-01
479.27	6.2880E-01
479.47	6.3024E-01
479.68	6.3000E-01
479.88	6.3070E-01
480.08	6.2983E-01
480.28	6.3143E-01
480.48	6.3082E-01
480.69	6.3188E-01
480.89	6.2948E-01
481.09	6.2980E-01
481.29	6.3430E-01
481.49	6.2045E-01
481.69	6.2901E-01
481.90	6.2499E-01
482.10	6.2416E-01
482.30	6.2539E-01
482.50	6.1969E-01
482.70	6.1375E-01
482.90	6.1139E-01
483.11	6.0790E-01
483.31	6.0471E-01
483.51	5.9509E-01
483.71	5.9377E-01
483.91	5.9196E-01
484.11	5.8927E-01
484.32	5.8691E-01
484.52	5.8665E-01
484.72	5.8365E-01
484.92	5.8042E-01
485.12	5.7749E-01
485.32	5.7549E-01
485.52	5.7338E-01
485.73	5.6856E-01
485.93	5.6766E-01
486.13	5.6915E-01
486.33	5.7129E-01
486.53	5.7468E-01
486.73	5.7701E-01
486.93	5.7702E-01
487.14	5.8418E-01
487.34	5.8594E-01
487.54	5.8806E-01
487.74	5.9248E-01
487.94	5.8729E-01
488.14	5.9489E-01
488.34	5.9693E-01
488.54	5.9759E-01
488.75	5.9836E-01
488.95	6.0160E-01
489.15	6.0190E-01
489.35	6.0187E-01
489.55	6.0262E-01
489.75	6.0630E-01
489.95	6.0503E-01
490.15	6.0530E-01
490.36	6.0801E-01
490.56	6.0696E-01
490.76	6.1051E-01
490.96	6.1023E-01
491.16	6.1110E-01
491.36	6.0997E-01
491.56	6.0902E-01
491.76	6.0393E-01
491.96	6.1014E-01
492.17	6.1025E-01
492.37	6.1265E-01
492.57	6.1499E-01
492.77	6.1587E-01
492.97	6.1953E-01
493.17	6.1752E-01
493.37	6.1766E-01
493.57	6.1765E-01
493.77	6.1884E-01
493.97	6.2403E-01
494.17	6.2085E-01
494.38	6.2231E-01
494.58	6.2028E-01
494.78	6.2083E-01
494.98	6.2068E-01
495.18	6.2335E-01
495.38	6.2287E-01
495.58	6.2460E-01
495.78	6.2468E-01
495.98	6.2651E-01
496.18	6.2534E-01
496.38	6.2150E-01
496.58	6.1753E-01
496.78	6.2359E-01
496.99	6.1840E-01
497.19	6.2118E-01
497.39	6.2209E-01
497.59	6.1818E-01
497.79	6.1406E-01
497.99	6.1598E-01
498.19	6.1539E-01
498.39	6.1541E-01
498.59	6.1123E-01
498.79	6.0958E-01
498.99	6.0811E-01
499.19	6.0976E-01
499.39	6.0927E-01
499.59	6.0628E-01
499.79	6.0499E-01
499.99	6.0424E-01
500.19	6.0677E-01
500.40	6.0290E-01
500.60	6.0508E-01
500.80	6.0377E-01
501.00	6.0215E-01
501.20	6.0133E-01
501.40	6.0605E-01
501.60	6.0268E-01
501.80	6.0356E-01
502.00	6.0606E-01
502.20	6.0482E-01
502.40	6.0583E-01
502.60	6.0348E-01
502.80	6.1196E-01
503.00	6.1118E-01
503.20	6.1044E-01
503.40	6.1011E-01
503.60	6.1272E-01
503.80	6.1691E-01
504.00	6.1641E-01
504.20	6.2005E-01
504.40	6.1990E-01
504.60	6.2251E-01
504.80	6.2313E-01
505.00	6.2298E-01
505.20	6.2630E-01
505.40	6.2464E-01
505.60	6.2413E-01
505.80	6.2650E-01
506.00	6.2687E-01
506.20	6.2648E-01
506.40	6.2717E-01
506.60	6.2752E-01
506.80	6.2561E-01
507.00	6.2853E-01
507.20	6.2947E-01
507.40	6.3173E-01
507.60	6.2866E-01
507.80	6.3018E-01
508.00	6.3118E-01
508.20	6.3465E-01
508.40	6.3292E-01
508.60	6.3080E-01
508.80	6.2972E-01
509.00	6.3771E-01
509.20	6.3559E-01
509.40	6.3408E-01
509.60	6.3575E-01
509.80	6.3408E-01
510.00	6.3870E-01
510.20	6.3737E-01
510.40	6.3820E-01
510.60	6.3513E-01
510.80	6.3390E-01
511.00	6.3337E-01
511.20	6.3880E-01
511.40	6.3515E-01
511.60	6.3567E-01
511.80	6.3662E-01
512.00	6.3629E-01
512.20	6.3823E-01
512.40	6.3525E-01
512.60	6.3613E-01
512.80	6.3593E-01
513.00	6.3831E-01
513.20	6.3673E-01
513.40	6.3414E-01
513.59	6.3176E-01
513.79	6.3444E-01
513.99	6.3245E-01
514.19	6.3294E-01
514.39	6.3035E-01
514.59	6.3244E-01
514.79	6.2924E-01
514.99	6.2850E-01
515.19	6.2958E-01
515.39	6.2986E-01
515.59	6.3001E-01
515.79	6.2510E-01
515.99	6.3152E-01
516.19	6.3142E-01
516.39	6.3070E-01
516.59	6.3267E-01
516.79	6.3703E-01
516.98	6.3373E-01
517.18	6.4044E-01
517.38	6.4223E-01
517.58	6.4490E-01
517.78	6.4846E-01
517.98	6.5238E-01
518.18	6.5714E-01
518.38	6.6669E-01
518.58	6.6716E-01
518.78	6.7121E-01
518.98	6.7572E-01
519.18	6.8204E-01
519.38	6.8922E-01
519.57	6.9277E-01
519.77	6.9468E-01
519.97	7.0214E-01
520.17	7.0531E-01
520.37	7.0922E-01
520.57	7.1521E-01
520.77	7.1982E-01
520.97	7.2220E-01
521.17	7.2460E-01
521.37	7.3085E-01
521.57	7.3595E-01
521.76	7.3595E-01
521.96	7.4148E-01
522.16	7.4283E-01
522.36	7.4933E-01
522.56	7.4425E-01
522.76	7.4847E-01
522.96	7.5313E-01
523.16	7.5204E-01
523.36	7.5527E-01
523.55	7.5246E-01
523.75	7.5385E-01
523.95	7.5428E-01
524.15	7.5216E-01
524.35	7.5448E-01
524.55	7.5517E-01
524.75	7.5806E-01
524.95	7.5966E-01
525.14	7.5887E-01
525.34	7.5853E-01
525.54	7.5671E-01
525.74	7.6011E-01
525.94	7.6156E-01
526.14	7.6627E-01
526.34	7.6742E-01
526.54	7.7193E-01
526.73	7.6948E-01
526.93	7.7711E-01
527.13	7.8089E-01
527.33	7.8473E-01
527.53	7.9039E-01
527.73	7.9092E-01
527.93	7.9809E-01
528.12	7.9733E-01
528.32	8.0353E-01
528.52	8.1058E-01
528.72	8.1571E-01
528.92	8.1549E-01
529.12	8.1839E-01
529.32	8.2174E-01
529.51	8.2534E-01
529.71	8.2768E-01
529.91	8.2884E-01
530.11	8.3272E-01
530.31	8.3719E-01
530.51	8.3319E-01
530.70	8.3406E-01
530.90	8.3821E-01
531.10	8.3704E-01
531.30	8.3940E-01
531.50	8.3936E-01
531.70	8.4096E-01
531.89	8.3858E-01
532.09	8.4010E-01
532.29	8.4062E-01
532.49	8.4611E-01
532.69	8.4615E-01
532.88	8.4658E-01
533.08	8.4564E-01
533.28	8.4985E-01
533.48	8.5544E-01
533.68	8.5533E-01
533.88	8.6140E-01
534.07	8.6212E-01
534.27	8.6305E-01
534.47	8.6726E-01
534.67	8.6275E-01
534.87	8.6972E-01
535.06	8.7041E-01
535.26	8.6919E-01
535.46	8.6983E-01
535.66	8.7928E-01
535.86	8.7477E-01
536.05	8.7514E-01
536.25	8.7676E-01
536.45	8.7732E-01
536.65	8.7654E-01
536.85	8.7458E-01
537.04	8.7604E-01
537.24	8.7988E-01
537.44	8.7100E-01
537.64	8.6944E-01
537.83	8.7512E-01
538.03	8.7658E-01
538.23	8.7910E-01
538.43	8.7896E-01
538.63	8.7425E-01
538.82	8.7619E-01
539.02	8.7604E-01
539.22	8.7928E-01
539.42	8.7534E-01
539.61	8.7883E-01
539.81	8.7995E-01
540.01	8.7625E-01
540.21	8.7954E-01
540.41	8.7953E-01
540.60	8.8301E-01
540.80	8.8504E-01
541.00	8.8676E-01
541.20	8.9331E-01
541.39	8.9399E-01
541.59	8.9549E-01
541.79	8.9767E-01
541.99	9.0363E-01
542.18	9.0266E-01
542.38	9.0442E-01
542.58	9.0520E-01
542.78	9.0815E-01
542.97	9.0590E-01
543.17	9.1298E-01
543.37	9.1106E-01
543.57	9.1877E-01
543.76	9.2366E-01
543.96	9.2271E-01
544.16	9.2126E-01
544.36	9.2539E-01
544.55	9.3180E-01
544.75	9.2924E-01
544.95	9.3223E-01
545.14	9.2459E-01
545.34	9.3336E-01
545.54	9.2960E-01
545.74	9.3159E-01
545.93	9.3584E-01
546.13	9.3516E-01
546.33	9.3249E-01
546.53	9.3261E-01
546.72	9.3966E-01
546.92	9.4093E-01
547.12	9.3892E-01
547.31	9.4209E-01
547.51	9.4201E-01
547.71	9.4682E-01
547.91	9.4767E-01
548.10	9.4190E-01
548.30	9.4577E-01
548.50	9.5293E-01
548.69	9.5217E-01
548.89	9.5153E-01
549.09	9.5384E-01
549.29	9.5296E-01
549.48	9.6329E-01
549.68	9.5412E-01
549.88	9.6163E-01
550.07	9.6409E-01
550.27	9.6437E-01
550.47	9.4657E-01
550.66	9.7191E-01
550.86	9.6271E-01
551.06	9.7354E-01
551.25	9.6840E-01
551.45	9.7671E-01
551.65	9.7737E-01
551.85	9.8231E-01
552.04	9.7153E-01
552.24	9.7956E-01
552.44	9.7600E-01
552.63	9.7580E-01
552.83	9.8082E-01
553.03	9.7689E-01
553.22	9.8643E-01
553.42	9.8090E-01
553.62	9.8911E-01
553.81	9.8271E-01
554.01	9.8751E-01
554.21	9.8300E-01
554.40	9.8727E-01
554.60	9.8607E-01
554.80	9.8846E-01
554.99	9.8812E-01
555.19	9.8758E-01
555.39	9.8791E-01
555.58	9.8260E-01
555.78	9.8399E-01
555.98	9.8132E-01
556.17	9.8080E-01
556.37	9.8098E-01
556.56	9.8108E-01
556.76	9.8083E-01
556.96	9.7648E-01
557.15	9.7814E-01
557.35	9.7591E-01
557.55	9.7594E-01
557.74	9.7600E-01
557.94	9.7877E-01
558.14	9.8095E-01
558.33	9.7502E-01
558.53	9.7506E-01
558.73	9.7827E-01
558.92	9.7478E-01
559.12	9.8390E-01
559.31	9.8595E-01
559.51	9.8910E-01
559.71	9.8491E-01
559.90	9.8903E-01
560.10	9.9063E-01
560.30	9.9120E-01
560.49	9.9048E-01
560.69	9.9575E-01
560.88	1.0003E00
561.08	9.9367E-01
561.28	9.9616E-01
561.47	1.0019E00
561.67	1.0030E00
561.86	9.9950E-01
562.06	1.0035E00
562.26	1.0065E00
562.45	1.0037E00
562.65	1.0067E00
562.84	1.0010E00
563.04	1.0035E00
563.24	1.0042E00
563.43	1.0091E00
563.63	1.0102E00
563.82	1.0069E00
564.02	1.0103E00
564.22	1.0121E00
564.41	1.0055E00
564.61	1.0091E00
564.80	1.0101E00
565.00	1.0069E00
565.20	1.0121E00
565.39	1.0045E00
565.59	1.0008E00
565.78	1.0068E00
565.98	1.0012E00
566.18	1.0098E00
566.37	1.0070E00
566.57	1.0041E00
566.76	1.0022E00
566.96	1.0088E00
567.15	1.0041E00
567.35	1.0109E00
567.55	1.0058E00
567.74	1.0062E00
567.94	1.0021E00
568.13	1.0070E00
568.33	1.0109E00
568.52	1.0099E00
568.72	1.0062E00
568.91	1.0043E00
569.11	1.0057E00
569.31	1.0126E00
569.50	1.0061E00
569.70	1.0120E00
569.89	1.0112E00
570.09	1.0109E00
570.28	1.0097E00
570.48	1.0121E00
570.67	1.0191E00
570.87	1.0118E00
571.07	1.0137E00
571.26	1.0198E00
571.46	1.0196E00
571.65	1.0235E00
571.85	1.0268E00
572.04	1.0248E00
572.24	1.0310E00
572.43	1.0254E00
572.63	1.0319E00
572.82	1.0283E00
573.02	1.0336E00
573.21	1.0295E00
573.41	1.0331E00
573.60	1.0373E00
573.80	1.0353E00
573.99	1.0324E00
574.19	1.0388E00
574.38	1.0355E00
574.58	1.0389E00
574.78	1.0331E00
574.97	1.0394E00
575.17	1.0366E00
575.36	1.0341E00
575.56	1.0321E00
575.75	1.0404E00
575.95	1.0351E00
576.14	1.0335E00
576.34	1.0407E00
576.53	1.0358E00
576.73	1.0371E00
576.92	1.0329E00
577.12	1.0431E00
577.31	1.0307E00
577.51	1.0441E00
577.70	1.0406E00
577.90	1.0414E00
578.09	1.0460E00
578.29	1.0411E00
578.48	1.0485E00
578.68	1.0448E00
578.87	1.0554E00
579.06	1.0485E00
579.26	1.0546E00
579.45	1.0520E00
579.65	1.0633E00
579.84	1.0580E00
580.04	1.0641E00
580.23	1.0683E00
580.43	1.0603E00
580.62	1.0680E00
580.82	1.0705E00
581.01	1.0692E00
581.21	1.0705E00
581.40	1.0704E00
581.60	1.0776E00
581.79	1.0807E00
581.99	1.0772E00
582.18	1.0778E00
582.37	1.0825E00
582.57	1.0827E00
582.76	1.0860E00
582.96	1.0867E00
583.15	1.0844E00
583.35	1.0838E00
583.54	1.0855E00
583.74	1.0838E00
583.93	1.0802E00
584.12	1.0772E00
584.32	1.0862E00
584.51	1.0817E00
584.71	1.0749E00
584.90	1.0746E00
585.10	1.0754E00
585.29	1.0748E00
585.49	1.0732E00
585.68	1.0733E00
585.87	1.0668E00
586.07	1.0614E00
586.26	1.0569E00
586.46	1.0537E00
586.65	1.0500E00
586.85	1.0491E00
587.04	1.0372E00
587.23	1.0444E00
587.43	1.0388E00
587.62	1.0256E00
587.82	1.0332E00
588.01	1.0258E00
588.20	1.0258E00
588.40	1.0192E00
588.59	1.0230E00
588.79	1.0234E00
588.98	1.0263E00
589.18	1.0209E00
589.37	1.0253E00
589.56	1.0197E00
589.76	1.0192E00
589.95	1.0314E00
590.15	1.0298E00
590.34	1.0282E00
590.53	1.0394E00
590.73	1.0363E00
590.92	1.0392E00
591.11	1.0456E00
591.31	1.0476E00
591.50	1.0536E00
591.70	1.0527E00
591.89	1.0598E00
592.08	1.0540E00
592.28	1.0533E00
592.47	1.0641E00
592.67	1.0641E00
592.86	1.0656E00
593.05	1.0610E00
593.25	1.0711E00
593.44	1.0693E00
593.63	1.0778E00
593.83	1.0717E00
594.02	1.0824E00
594.22	1.0834E00
594.41	1.0881E00
594.60	1.0828E00
594.80	1.0854E00
594.99	1.0880E00
595.18	1.0893E00
595.38	1.0889E00
595.57	1.0933E00
595.76	1.0974E00
595.96	1.0978E00
596.15	1.0934E00
596.34	1.1094E00
596.54	1.1087E00
596.73	1.1068E00
596.93	1.1109E00
597.12	1.1085E00
597.31	1.1137E00
597.51	1.1113E00
597.70	1.1129E00
597.89	1.1126E00
598.09	1.1110E00
598.28	1.1244E00
598.47	1.1151E00
598.67	1.1202E00
598.86	1.1159E00
599.05	1.1272E00
599.25	1.1237E00
599.44	1.1285E00
599.63	1.1332E00
599.83	1.1275E00
600.02	1.1293E00
600.21	1.1323E00
600.41	1.1357E00
600.60	1.1312E00
600.79	1.1381E00
600.98	1.1406E00
601.18	1.1493E00
601.37	1.1417E00
601.56	1.1459E00
601.76	1.1594E00
601.95	1.1492E00
602.14	1.1531E00
602.34	1.1536E00
602.53	1.1622E00
602.72	1.1557E00
602.92	1.1640E00
603.11	1.1615E00
603.30	1.1685E00
603.49	1.1662E00
603.69	1.1760E00
603.88	1.1715E00
604.07	1.1763E00
604.27	1.1720E00
604.46	1.1675E00
604.65	1.1740E00
604.84	1.1735E00
605.04	1.1775E00
605.23	1.1749E00
605.42	1.1748E00
605.62	1.1770E00
605.81	1.1725E00
606.00	1.1744E00
606.19	1.1788E00
606.39	1.1803E00
606.58	1.1732E00
606.77	1.1748E00
606.97	1.1698E00
607.16	1.1775E00
607.35	1.1792E00
607.54	1.1736E00
607.74	1.1807E00
607.93	1.1813E00
608.12	1.1745E00
608.31	1.1783E00
608.51	1.1803E00
608.70	1.1759E00
608.89	1.1750E00
609.08	1.1716E00
609.28	1.1782E00
609.47	1.1798E00
609.66	1.1805E00
609.85	1.1832E00
610.05	1.1841E00
610.24	1.1788E00
610.43	1.1808E00
610.62	1.1805E00
610.82	1.1793E00
611.01	1.1842E00
611.20	1.1810E00
611.39	1.1825E00
611.59	1.1830E00
611.78	1.1864E00
611.97	1.1864E00
612.16	1.1925E00
612.35	1.1829E00
612.55	1.1843E00
612.74	1.1901E00
612.93	1.1894E00
613.12	1.1813E00
613.32	1.1850E00
613.51	1.1864E00
613.70	1.1875E00
613.89	1.1880E00
614.08	1.1915E00
614.28	1.1896E00
614.47	1.1881E00
614.66	1.1914E00
614.85	1.1961E00
615.04	1.1966E00
615.24	1.2047E00
615.43	1.1994E00
615.62	1.1980E00
615.81	1.2004E00
616.00	1.1935E00
616.20	1.2036E00
616.39	1.2078E00
616.58	1.2101E00
616.77	1.2132E00
616.96	1.2247E00
617.16	1.2271E00
617.35	1.2283E00
617.54	1.2281E00
617.73	1.2283E00
617.92	1.2319E00
618.12	1.2409E00
618.31	1.2421E00
618.50	1.2469E00
618.69	1.2461E00
618.88	1.2585E00
619.07	1.2560E00
619.27	1.2596E00
619.46	1.2638E00
619.65	1.2716E00
619.84	1.2652E00
620.03	1.2654E00
620.22	1.2760E00
620.42	1.2631E00
620.61	1.2795E00
620.80	1.2767E00
620.99	1.2765E00
621.18	1.2843E00
621.37	1.2760E00
621.57	1.2667E00
621.76	1.2786E00
621.95	1.2771E00
622.14	1.2715E00
622.33	1.2667E00
622.52	1.2712E00
622.71	1.2762E00
622.91	1.2779E00
623.10	1.2744E00
623.29	1.2728E00
623.48	1.2691E00
623.67	1.2750E00
623.86	1.2742E00
624.05	1.2733E00
624.25	1.2668E00
624.44	1.2742E00
624.63	1.2789E00
624.82	1.2740E00
625.01	1.2692E00
625.20	1.2777E00
625.39	1.2655E00
625.58	1.2750E00
625.78	1.2777E00
625.97	1.2649E00
626.16	1.2696E00
626.35	1.2710E00
626.54	1.2785E00
626.73	1.2784E00
626.92	1.2746E00
627.11	1.2745E00
627.31	1.2740E00
627.50	1.2725E00
627.69	1.2761E00
627.88	1.2792E00
628.07	1.2618E00
628.26	1.2716E00
628.45	1.2682E00
628.64	1.2705E00
628.83	1.2692E00
629.02	1.2586E00
629.22	1.2786E00
629.41	1.2683E00
629.60	1.2605E00
629.79	1.2768E00
629.98	1.2699E00
630.17	1.2772E00
630.36	1.2739E00
630.55	1.2748E00
630.74	1.2770E00
630.93	1.2828E00
631.12	1.2714E00
631.31	1.2742E00
631.51	1.2817E00
631.70	1.2805E00
631.89	1.2739E00
632.08	1.2767E00
632.27	1.2801E00
632.46	1.2797E00
632.65	1.2821E00
632.84	1.2757E00
633.03	1.2908E00
633.22	1.2845E00
633.41	1.2914E00
633.60	1.2920E00
633.79	1.2863E00
633.98	1.2779E00
634.17	1.2875E00
634.37	1.2888E00
634.56	1.2960E00
634.75	1.2850E00
634.94	1.2960E00
635.13	1.2910E00
635.32	1.2969E00
635.51	1.2987E00
635.70	1.2909E00
635.89	1.3084E00
636.08	1.2975E00
636.27	1.2929E00
636.46	1.3015E00
636.65	1.2955E00
636.84	1.2904E00
637.03	1.3005E00
637.22	1.2994E00
637.41	1.2960E00
637.60	1.2996E00
637.79	1.2999E00
637.98	1.2964E00
638.17	1.2954E00
638.36	1.2880E00
638.55	1.2803E00
638.74	1.2807E00
638.93	1.2836E00
639.12	1.2798E00
639.31	1.2815E00
639.50	1.2779E00
639.69	1.2746E00
639.88	1.2827E00
640.07	1.2752E00
640.26	1.2833E00
640.45	1.2805E00
640.64	1.2821E00
640.83	1.2806E00
641.02	1.2874E00
641.21	1.2789E00
641.40	1.2671E00
641.59	1.2798E00
641.78	1.2812E00
641.97	1.2794E00
642.16	1.2818E00
642.35	1.2800E00
642.54	1.2808E00
642.73	1.2764E00
642.92	1.2595E00
643.11	1.2787E00
643.30	1.2792E00
643.49	1.2691E00
643.68	1.2717E00
643.87	1.2610E00
644.06	1.2656E00
644.25	1.2578E00
644.44	1.2563E00
644.63	1.2521E00
644.82	1.2512E00
645.01	1.2538E00
645.20	1.2500E00
645.39	1.2446E00
645.58	1.2388E00
645.77	1.2380E00
645.96	1.2435E00
646.15	1.2369E00
646.34	1.2361E00
646.53	1.2316E00
646.72	1.2329E00
646.91	1.2234E00
647.10	1.2379E00
647.29	1.2257E00
647.47	1.2288E00
647.66	1.2224E00
647.85	1.2187E00
648.04	1.2212E00
648.23	1.2218E00
648.42	1.2388E00
648.61	1.2181E00
648.80	1.2280E00
648.99	1.2342E00
649.18	1.2233E00
649.37	1.2332E00
649.56	1.2304E00
649.75	1.2280E00
649.94	1.2378E00
650.13	1.2359E00
650.31	1.2381E00
650.50	1.2347E00
650.69	1.2406E00
650.88	1.2368E00
651.07	1.2398E00
651.26	1.2438E00
651.45	1.2546E00
651.64	1.2468E00
651.83	1.2386E00
652.02	1.2433E00
652.21	1.2364E00
652.40	1.2347E00
652.58	1.2477E00
652.77	1.2252E00
652.96	1.2187E00
653.15	1.2241E00
653.34	1.2193E00
653.53	1.2159E00
653.72	1.2107E00
653.91	1.1986E00
654.10	1.1982E00
654.29	1.1890E00
654.47	1.1992E00
654.66	1.1762E00
654.85	1.1774E00
655.04	1.1689E00
655.23	1.1746E00
655.42	1.1621E00
655.61	1.1710E00
655.80	1.1690E00
655.98	1.1754E00
656.17	1.1747E00
656.36	1.1796E00
656.55	1.1759E00
656.74	1.1928E00
656.93	1.1942E00
657.12	1.2018E00
657.31	1.1970E00
657.49	1.2191E00
657.68	1.2194E00
657.87	1.2113E00
658.06	1.2368E00
658.25	1.2308E00
658.44	1.2443E00
658.63	1.2432E00
658.81	1.2457E00
659.00	1.2566E00
659.19	1.2574E00
659.38	1.2738E00
659.57	1.2757E00
659.76	1.2683E00
659.95	1.2831E00
660.13	1.2671E00
660.32	1.2823E00
660.51	1.2802E00
660.70	1.2899E00
660.89	1.2846E00
661.08	1.2875E00
661.26	1.2830E00
661.45	1.2898E00
661.64	1.2854E00
661.83	1.2837E00
662.02	1.2868E00
662.21	1.2926E00
662.39	1.2962E00
662.58	1.2893E00
662.77	1.3024E00
662.96	1.2962E00
663.15	1.2875E00
663.33	1.3024E00
663.52	1.2943E00
663.71	1.2949E00
663.90	1.2950E00
664.09	1.2857E00
664.28	1.2931E00
664.46	1.2872E00
664.65	1.2890E00
664.84	1.2822E00
665.03	1.2917E00
665.22	1.2947E00
665.40	1.2956E00
665.59	1.2893E00
665.78	1.2900E00
665.97	1.2903E00
666.16	1.2966E00
666.34	1.3022E00
666.53	1.2897E00
666.72	1.3016E00
666.91	1.2951E00
667.09	1.2958E00
667.28	1.3004E00
667.47	1.2969E00
667.66	1.2927E00
667.85	1.2923E00
668.03	1.2681E00
668.22	1.2989E00
668.41	1.2930E00
668.60	1.2757E00
668.78	1.2971E00
668.97	1.2894E00
669.16	1.2837E00
669.35	1.2956E00
669.54	1.2816E00
669.72	1.2949E00
669.91	1.2872E00
670.10	1.2909E00
670.29	1.2895E00
670.47	1.2940E00
670.66	1.2956E00
670.85	1.2877E00
671.04	1.2784E00
671.22	1.2789E00
671.41	1.2889E00
671.60	1.2898E00
671.79	1.2915E00
671.97	1.2839E00
672.16	1.2981E00
672.35	1.2932E00
672.54	1.2947E00
672.72	1.2869E00
672.91	1.2804E00
673.10	1.2865E00
673.28	1.2834E00
673.47	1.2855E00
673.66	1.2861E00
673.85	1.2991E00
674.03	1.2913E00
674.22	1.2902E00
674.41	1.2828E00
674.60	1.2845E00
674.78	1.2726E00
674.97	1.2780E00
675.16	1.3016E00
675.34	1.2912E00
675.53	1.2834E00
675.72	1.2770E00
675.91	1.2975E00
676.09	1.2873E00
676.28	1.2945E00
676.47	1.2885E00
676.65	1.2768E00
676.84	1.2870E00
677.03	1.2937E00
677.22	1.2833E00
677.40	1.2909E00
677.59	1.2870E00
677.78	1.2815E00
677.96	1.2850E00
678.15	1.2919E00
678.34	1.3009E00
678.52	1.2821E00
678.71	1.2856E00
678.90	1.2878E00
679.08	1.2905E00
679.27	1.2808E00
679.46	1.2973E00
679.64	1.2887E00
679.83	1.2847E00
680.02	1.2871E00
680.21	1.2691E00
680.39	1.2937E00
680.58	1.2847E00
680.77	1.2796E00
680.95	1.2800E00
681.14	1.2672E00
681.33	1.2798E00
681.51	1.2850E00
681.70	1.2809E00
681.89	1.2833E00
682.07	1.2733E00
682.26	1.2573E00
682.44	1.2740E00
682.63	1.2707E00
682.82	1.2718E00
683.00	1.2445E00
683.19	1.2533E00
683.38	1.2521E00
683.56	1.2495E00
683.75	1.2377E00
683.94	1.2173E00
684.12	1.2108E00
684.31	1.2165E00
684.50	1.2126E00
684.68	1.1932E00
684.87	1.1838E00
685.05	1.1782E00
685.24	1.1561E00
685.43	1.1565E00
685.61	1.1486E00
685.80	1.1314E00
685.99	1.1345E00
686.17	1.1144E00
686.36	1.1229E00
686.54	1.1152E00
686.73	1.1045E00
686.92	1.1002E00
687.10	1.0920E00
687.29	1.0991E00
687.48	1.0869E00
687.66	1.1043E00
687.85	1.0895E00
688.03	1.0943E00
688.22	1.0831E00
688.41	1.0984E00
688.59	1.0851E00
688.78	1.1021E00
688.96	1.1086E00
689.15	1.1169E00
689.34	1.0909E00
689.52	1.1240E00
689.71	1.1164E00
689.89	1.1245E00
690.08	1.1373E00
690.27	1.1275E00
690.45	1.1259E00
690.64	1.1256E00
690.82	1.1193E00
691.01	1.1325E00
691.19	1.1283E00
691.38	1.1335E00
691.57	1.1399E00
691.75	1.1273E00
691.94	1.1415E00
692.12	1.1318E00
692.31	1.1435E00
692.50	1.1348E00
692.68	1.1418E00
692.87	1.1484E00
693.05	1.1449E00
693.24	1.1325E00
693.42	1.1392E00
693.61	1.1468E00
693.79	1.1553E00
693.98	1.1432E00
694.17	1.1537E00
694.35	1.1644E00
694.54	1.1664E00
694.72	1.1633E00
694.91	1.1667E00
695.09	1.1711E00
695.28	1.1745E00
695.46	1.1786E00
695.65	1.1829E00
695.83	1.1856E00
696.02	1.1945E00
696.21	1.1968E00
696.39	1.1873E00
696.58	1.1967E00
696.76	1.1725E00
696.95	1.1836E00
697.13	1.1870E00
697.32	1.1911E00
697.50	1.1881E00
697.69	1.1898E00
697.87	1.1940E00
698.06	1.1918E00
698.24	1.1795E00
698.43	1.1818E00
698.61	1.1960E00
698.80	1.1826E00
698.98	1.1893E00
699.17	1.1603E00
699.35	1.1787E00
699.54	1.1715E00
699.72	1.1575E00
699.91	1.1797E00
700.09	1.1783E00
700.28	1.1807E00
700.46	1.1807E00
700.65	1.1774E00
700.83	1.1846E00
701.02	1.1890E00
701.20	1.1631E00
701.39	1.1947E00
701.57	1.1863E00
701.76	1.1754E00
701.94	1.1865E00
702.13	1.1924E00
702.31	1.1730E00
702.50	1.2189E00
702.68	1.2113E00
702.87	1.2192E00
703.05	1.2227E00
703.24	1.2164E00
703.42	1.1900E00
703.61	1.2260E00
703.79	1.2340E00
703.98	1.2129E00
704.16	1.2222E00
704.35	1.2179E00
704.53	1.2280E00
704.72	1.2302E00
704.90	1.2357E00
705.08	1.2233E00
705.27	1.2476E00
705.45	1.2447E00
705.64	1.2519E00
705.82	1.2478E00
706.01	1.2463E00
706.19	1.2380E00
706.38	1.2443E00
706.56	1.2597E00
706.75	1.2553E00
706.93	1.2504E00
707.11	1.2360E00
707.30	1.2580E00
707.48	1.2563E00
707.67	1.2435E00
707.85	1.2517E00
708.04	1.2610E00
708.22	1.2606E00
708.40	1.2505E00
708.59	1.2439E00
708.77	1.2661E00
708.96	1.2593E00
709.14	1.2654E00
709.33	1.2594E00
709.51	1.2679E00
709.69	1.2684E00
709.88	1.2736E00
710.06	1.2717E00
710.25	1.2596E00
710.43	1.2707E00
710.62	1.2791E00
710.80	1.2699E00
710.98	1.2747E00
711.17	1.2705E00
711.35	1.2751E00
711.54	1.2781E00
711.72	1.2641E00
711.90	1.2752E00
712.09	1.2722E00
712.27	1.2527E00
712.46	1.2659E00
712.64	1.2532E00
712.82	1.2686E00
713.01	1.2657E00
713.19	1.2588E00
713.37	1.2454E00
713.56	1.2367E00
713.74	1.2433E00
713.93	1.2236E00
714.11	1.2080E00
714.29	1.1871E00
714.48	1.2013E00
714.66	1.1890E00
714.85	1.1677E00
715.03	1.1578E00
715.21	1.1441E00
715.40	1.1214E00
715.58	1.1114E00
715.76	1.0899E00
715.95	1.0824E00
716.13	1.0863E00
716.31	1.0623E00
716.50	1.0442E00
716.68	1.0249E00
716.87	1.0251E00
717.05	1.0156E00
717.23	9.8991E-01
717.42	9.9235E-01
717.60	9.7826E-01
717.78	9.7905E-01
717.97	9.7548E-01
718.15	9.6625E-01
718.33	9.5819E-01
718.52	9.6969E-01
718.70	9.7688E-01
718.88	9.6345E-01
719.07	9.9309E-01
719.25	9.7781E-01
719.43	9.8800E-01
719.62	9.8593E-01
719.80	9.9229E-01
719.98	1.0131E00
720.17	1.0102E00
720.35	1.0138E00
720.53	1.0307E00
720.72	1.0397E00
720.90	1.0319E00
721.08	1.0284E00
721.27	1.0354E00
721.45	1.0367E00
721.63	1.0353E00
721.82	1.0472E00
722.00	1.0370E00
722.18	1.0366E00
722.36	1.0489E00
722.55	1.0418E00
722.73	1.0428E00
722.91	1.0399E00
723.10	1.0486E00
723.28	1.0371E00
723.46	1.0107E00
723.65	1.0254E00
723.83	1.0234E00
724.01	1.0165E00
724.19	1.0279E00
724.38	1.0284E00
724.56	1.0324E00
724.74	1.0383E00
724.93	1.0129E00
725.11	1.0176E00
725.29	1.0351E00
725.47	1.0342E00
725.66	1.0339E00
725.84	1.0296E00
726.02	1.0344E00
726.21	1.0486E00
726.39	1.0336E00
726.57	1.0386E00
726.75	1.0330E00
726.94	1.0490E00
727.12	1.0370E00
727.30	1.0361E00
727.48	1.0305E00
727.67	1.0507E00
727.85	1.0429E00
728.03	1.0497E00
728.21	1.0623E00
728.40	1.0470E00
728.58	1.0675E00
728.76	1.0593E00
728.94	1.0700E00
729.13	1.0814E00
729.31	1.0676E00
729.49	1.0834E00
729.67	1.0877E00
729.86	1.0964E00
730.04	1.0861E00
730.22	1.1139E00
730.40	1.1162E00
730.59	1.1232E00
730.77	1.1331E00
730.95	1.1516E00
731.13	1.1499E00
731.31	1.1611E00
731.50	1.1489E00
731.68	1.1850E00
731.86	1.1792E00
732.04	1.1932E00
732.23	1.2126E00
732.41	1.2108E00
732.59	1.2230E00
732.77	1.2326E00
732.95	1.2377E00
733.14	1.2342E00
733.32	1.2584E00
733.50	1.2528E00
733.68	1.2551E00
733.86	1.2580E00
734.05	1.2700E00
734.23	1.2744E00
734.41	1.2527E00
734.59	1.2685E00
734.77	1.2760E00
734.96	1.2562E00
735.14	1.2875E00
735.32	1.2857E00
735.50	1.2856E00
735.68	1.3054E00
735.87	1.2922E00
736.05	1.3143E00
736.23	1.2788E00
736.41	1.3080E00
736.59	1.2992E00
736.77	1.2950E00
736.96	1.2940E00
737.14	1.2829E00
737.32	1.3110E00
737.50	1.3185E00
737.68	1.3135E00
737.87	1.3194E00
738.05	1.3355E00
738.23	1.3047E00
738.41	1.3190E00
738.59	1.3262E00
738.77	1.3323E00
738.95	1.3450E00
739.14	1.3193E00
739.32	1.3227E00
739.50	1.3494E00
739.68	1.3274E00
739.86	1.3368E00
740.04	1.3364E00
740.23	1.3215E00
740.41	1.3504E00
740.59	1.3552E00
740.77	1.3652E00
740.95	1.3553E00
741.13	1.3482E00
741.31	1.3455E00
741.50	1.3513E00
741.68	1.3513E00
741.86	1.3490E00
742.04	1.3723E00
742.22	1.3793E00
742.40	1.3732E00
742.58	1.3819E00
742.76	1.3879E00
742.95	1.3630E00
743.13	1.3976E00
743.31	1.3909E00
743.49	1.3862E00
743.67	1.4039E00
743.85	1.3987E00
744.03	1.3889E00
744.21	1.3977E00
744.39	1.3825E00
744.58	1.4057E00
744.76	1.4038E00
744.94	1.4179E00
745.12	1.4056E00
745.30	1.3948E00
745.48	1.4085E00
745.66	1.4134E00
745.84	1.3870E00
746.02	1.3890E00
746.20	1.3989E00
746.38	1.4088E00
746.57	1.4244E00
746.75	1.3833E00
746.93	1.4120E00
747.11	1.3918E00
747.29	1.4047E00
747.47	1.4178E00
747.65	1.4138E00
747.83	1.3861E00
748.01	1.4067E00
748.19	1.4101E00
748.37	1.4062E00
748.55	1.4062E00
748.73	1.3957E00
748.92	1.4083E00
749.10	1.3949E00
749.28	1.4155E00
749.46	1.3994E00
749.64	1.3920E00
749.82	1.3971E00
750.00	1.4099E00
750.18	1.4028E00
750.36	1.3824E00
750.54	1.4042E00
750.72	1.4152E00
750.90	1.4144E00
751.08	1.4018E00
751.26	1.4167E00
751.44	1.4142E00
751.62	1.4274E00
751.80	1.4130E00
751.98	1.4213E00
752.16	1.4282E00
752.34	1.4317E00
752.52	1.4401E00
752.71	1.4109E00
752.89	1.4057E00
753.07	1.4392E00
753.25	1.4102E00
753.43	1.4472E00
753.61	1.4260E00
753.79	1.4576E00
753.97	1.4512E00
754.15	1.4580E00
754.33	1.4648E00
754.51	1.4668E00
754.69	1.4692E00
754.87	1.4610E00
755.05	1.4634E00
755.23	1.4793E00
755.41	1.4894E00
755.59	1.4098E00
755.77	1.4548E00
755.95	1.4454E00
756.13	1.4120E00
756.31	1.4325E00
756.49	1.4241E00
756.67	1.3950E00
756.85	1.3739E00
757.03	1.3460E00
757.21	1.3267E00
757.39	1.3102E00
757.57	1.2882E00
757.75	1.2375E00
757.93	1.1866E00
758.11	1.1713E00
758.29	1.1395E00
758.47	1.0999E00
758.65	1.0794E00
758.83	1.0779E00
759.01	1.0356E00
759.18	9.9762E-01
759.36	9.3912E-01
759.54	9.4285E-01
759.72	9.0115E-01
759.90	8.9830E-01
760.08	8.8109E-01
760.26	8.6813E-01
760.44	8.3733E-01
760.62	8.0967E-01
760.80	8.0503E-01
760.98	8.3524E-01
761.16	8.3222E-01
761.34	8.1505E-01
761.52	8.3907E-01
761.70	8.1297E-01
761.88	8.2139E-01
762.06	8.3029E-01
762.24	8.3110E-01
762.42	8.4162E-01
762.60	8.4977E-01
762.78	8.6607E-01
762.95	8.7057E-01
763.13	8.9871E-01
763.31	9.1775E-01
763.49	9.2097E-01
763.67	9.4513E-01
763.85	9.4238E-01
764.03	9.9592E-01
764.21	9.9432E-01
764.39	1.0337E00
764.57	1.0759E00
764.75	1.0873E00
764.93	1.1423E00
765.11	1.1335E00
765.28	1.1831E00
765.46	1.1987E00
765.64	1.2122E00
765.82	1.2452E00
766.00	1.2728E00
766.18	1.2920E00
766.36	1.3099E00
766.54	1.3249E00
766.72	1.3482E00
766.90	1.3936E00
767.07	1.3682E00
767.25	1.4035E00
767.43	1.4236E00
767.61	1.4535E00
767.79	1.4670E00
767.97	1.4698E00
768.15	1.4665E00
768.33	1.4627E00
768.51	1.4958E00
768.68	1.5025E00
768.86	1.4937E00
769.04	1.5040E00
769.22	1.5459E00
769.40	1.5446E00
769.58	1.5330E00
769.76	1.5733E00
769.94	1.5716E00
770.11	1.5465E00
770.29	1.5605E00
770.47	1.5573E00
770.65	1.5641E00
770.83	1.5607E00
771.01	1.5772E00
771.19	1.5753E00
771.36	1.5535E00
771.54	1.5740E00
771.72	1.5602E00
771.90	1.5452E00
772.08	1.5712E00
772.26	1.5838E00
772.44	1.5459E00
772.61	1.5684E00
772.79	1.5412E00
772.97	1.5708E00
773.15	1.5863E00
773.33	1.5449E00
773.51	1.5674E00
773.68	1.5420E00
773.86	1.5353E00
774.04	1.5485E00
774.22	1.5308E00
774.40	1.5425E00
774.58	1.5520E00
774.75	1.5425E00
774.93	1.5119E00
775.11	1.5497E00
775.29	1.5281E00
775.47	1.5086E00
775.64	1.5381E00
775.82	1.5207E00
776.00	1.5251E00
776.18	1.5003E00
776.36	1.5026E00
776.53	1.5379E00
776.71	1.4999E00
776.89	1.4925E00
777.07	1.5063E00
777.25	1.4998E00
777.42	1.4989E00
777.60	1.4818E00
777.78	1.5003E00
777.96	1.4844E00
778.14	1.5020E00
778.31	1.4833E00
778.49	1.4526E00
778.67	1.4595E00
778.85	1.4676E00
779.03	1.4771E00
779.20	1.4733E00
779.38	1.4653E00
779.56	1.4409E00
779.74	1.4726E00
779.91	1.4540E00
780.09	1.4459E00
780.27	1.4247E00
780.45	1.4360E00
780.62	1.4491E00
780.80	1.4552E00
780.98	1.4208E00
781.16	1.4025E00
781.34	1.4332E00
781.51	1.4361E00
781.69	1.4372E00
781.87	1.4254E00
782.05	1.4180E00
782.22	1.4197E00
782.40	1.4073E00
782.58	1.4131E00
782.76	1.3900E00
782.93	1.4137E00
783.11	1.4264E00
783.29	1.3914E00
783.47	1.3891E00
783.64	1.3948E00
783.82	1.3756E00
784.00	1.3506E00
784.17	1.3692E00
784.35	1.3688E00
784.53	1.3576E00
784.71	1.3692E00
784.88	1.3530E00
785.06	1.3811E00
785.24	1.3525E00
785.42	1.3663E00
785.59	1.3518E00
785.77	1.3119E00
785.95	1.3245E00
786.12	1.3015E00
786.30	1.3201E00
786.48	1.3132E00
786.65	1.3008E00
786.83	1.3043E00
787.01	1.3064E00
787.19	1.2962E00
787.36	1.3002E00
787.54	1.2871E00
787.72	1.2927E00
787.89	1.2862E00
788.07	1.2785E00
788.25	1.2686E00
788.42	1.2583E00
788.60	1.2785E00
788.78	1.2517E00
788.96	1.2526E00
789.13	1.2350E00
789.31	1.2393E00
789.49	1.2388E00
789.66	1.2537E00
789.84	1.2264E00
790.02	1.1966E00
790.19	1.2173E00
790.37	1.2241E00
790.55	1.2138E00
790.72	1.2139E00
790.90	1.2340E00
791.08	1.2013E00
791.25	1.2061E00
791.43	1.2070E00
791.61	1.1938E00
791.78	1.1918E00
791.96	1.1642E00
792.14	1.1870E00
792.31	1.2010E00
792.49	1.1577E00
792.67	1.2068E00
792.84	1.1711E00
793.02	1.1719E00
793.19	1.1611E00
793.37	1.1896E00
793.55	1.1897E00
793.72	1.1839E00
793.90	1.1523E00
794.08	1.1687E00
794.25	1.1714E00
794.43	1.1513E00
794.61	1.1656E00
794.78	1.1615E00
794.96	1.1351E00
795.13	1.1596E00
795.31	1.1636E00
795.49	1.1331E00
795.66	1.1545E00
795.84	1.1445E00
796.01	1.1472E00
796.19	1.1324E00
796.37	1.1510E00
796.54	1.1382E00
796.72	1.1462E00
796.90	1.1318E00
797.07	1.1102E00
797.25	1.1308E00
797.42	1.1443E00
797.60	1.1383E00
797.78	1.1272E00
797.95	1.1065E00
798.13	1.0941E00
798.30	1.1183E00
798.48	1.1101E00
798.66	1.1273E00
798.83	1.0866E00
799.01	1.1057E00
799.18	1.0870E00
799.36	1.1137E00
799.53	1.0613E00
799.71	1.1012E00
799.89	1.0791E00
800.06	1.0803E00
800.24	1.0822E00
800.41	1.0519E00
800.59	1.0919E00
800.76	1.0536E00
800.94	1.0523E00
801.12	1.0708E00
801.29	1.0662E00
801.47	1.0724E00
801.64	1.0410E00
801.82	1.0653E00
801.99	1.0629E00
802.17	1.0600E00
802.34	1.0516E00
802.52	1.0483E00
802.70	1.0595E00
802.87	1.0332E00
803.05	1.0208E00
803.22	1.0655E00
803.40	1.0396E00
803.57	1.0389E00
803.75	1.0637E00
803.92	1.0449E00
804.10	1.0153E00
804.27	1.0217E00
804.45	1.0396E00
804.63	1.0322E00
804.80	1.0224E00
804.98	1.0421E00
805.15	1.0086E00
805.33	1.0597E00
805.50	1.0667E00
805.68	1.0565E00
805.85	1.0681E00
806.03	1.0459E00
806.20	1.0506E00
806.38	9.9780E-01
806.55	1.0115E00
806.73	1.0588E00
806.90	1.0289E00
807.08	1.0177E00
807.25	9.9124E-01
807.43	1.0201E00
807.60	1.0324E00
807.78	9.9820E-01
807.95	9.7036E-01
808.13	9.8173E-01
808.30	9.7047E-01
808.48	1.0014E00
808.65	9.8600E-01
808.83	1.0157E00
809.00	9.8237E-01
809.18	1.0084E00
809.35	9.6098E-01
809.53	9.9180E-01
809.70	9.7495E-01
809.88	9.7477E-01
810.05	9.6720E-01
810.23	9.7826E-01
810.40	9.6165E-01
810.57	9.5771E-01
810.75	9.3069E-01
810.92	9.2538E-01
811.10	9.2592E-01
811.27	8.9873E-01
811.45	9.1011E-01
811.62	8.9292E-01
811.80	8.7421E-01
811.97	8.9421E-01
812.15	8.9226E-01
812.32	8.8649E-01
812.50	8.3611E-01
812.67	9.0319E-01
812.84	8.3855E-01
813.02	8.5601E-01
813.19	8.4600E-01
813.37	8.4084E-01
813.54	8.0861E-01
813.72	8.1233E-01
813.89	7.8411E-01
814.07	8.0107E-01
814.24	8.0048E-01
814.41	8.0234E-01
814.59	7.6257E-01
814.76	7.5277E-01
814.94	7.6965E-01
815.11	7.7481E-01
815.29	7.0929E-01
815.46	7.2170E-01
815.63	7.3059E-01
815.81	7.2885E-01
815.98	6.7821E-01
816.16	6.8384E-01
816.33	7.2028E-01
816.50	7.3329E-01
816.68	7.1262E-01
816.85	6.9551E-01
817.03	7.1614E-01
817.20	7.0401E-01
817.37	7.2291E-01
817.55	6.9942E-01
817.72	7.1045E-01
817.90	6.7843E-01
818.07	7.0564E-01
818.24	6.7242E-01
818.42	6.8789E-01
818.59	6.8724E-01
818.77	6.9191E-01
818.94	7.2361E-01
819.11	6.8294E-01
819.29	7.2560E-01
819.46	7.1891E-01
819.64	6.7788E-01
819.81	7.4052E-01
819.98	7.2939E-01
820.16	6.9539E-01
820.33	7.1844E-01
820.50	7.1230E-01
820.68	6.8739E-01
820.85	7.1239E-01
821.02	7.0027E-01
821.20	6.7756E-01
821.37	7.0452E-01
821.55	6.6226E-01
821.72	6.8900E-01
821.89	6.9309E-01
822.07	7.1586E-01
822.24	7.1206E-01
822.41	6.5862E-01
822.59	7.2709E-01
822.76	7.2704E-01
822.93	6.8699E-01
823.11	7.0039E-01
823.28	7.1553E-01
823.45	6.9602E-01
823.63	7.0275E-01
823.80	7.2836E-01
823.97	6.6644E-01
824.15	7.3544E-01
824.32	7.0646E-01
824.49	7.5749E-01
824.67	7.1358E-01
824.84	7.3278E-01
825.01	7.3170E-01
825.19	7.3567E-01
825.36	7.3510E-01
825.53	7.5860E-01
825.71	7.4594E-01
825.88	7.5179E-01
826.05	7.1188E-01
826.23	7.4368E-01
826.40	7.2307E-01
826.57	7.2701E-01
826.75	7.1578E-01
826.92	6.9660E-01
827.09	6.9535E-01
827.26	7.5529E-01
827.44	7.2433E-01
827.61	7.5620E-01
827.78	7.3325E-01
827.96	6.8524E-01
828.13	7.5108E-01
828.30	7.2872E-01
828.48	7.1513E-01
828.65	7.0846E-01
828.82	7.1067E-01
828.99	7.1043E-01
829.17	7.1798E-01
829.34	6.6208E-01
829.51	7.0476E-01
829.68	7.3812E-01
829.86	7.2418E-01
830.03	7.0085E-01
830.20	7.1401E-01
830.38	7.0057E-01
830.55	6.7170E-01
830.72	7.0747E-01
830.89	6.7059E-01
831.07	6.7094E-01
831.24	6.6976E-01
831.41	6.8255E-01
831.58	7.0968E-01
831.76	7.3501E-01
831.93	7.1546E-01
832.10	7.1399E-01
832.27	6.6652E-01
832.45	6.6591E-01
832.62	7.0574E-01
832.79	6.8348E-01
832.96	7.1445E-01
833.14	6.6643E-01
833.31	7.3460E-01
833.48	7.0807E-01
833.65	6.8727E-01
833.83	7.3517E-01
834.00	7.4381E-01
834.17	7.0970E-01
834.34	7.2800E-01
834.51	7.0415E-01
834.69	6.8878E-01
834.86	7.3404E-01
835.03	7.0288E-01
835.20	7.3395E-01
835.38	7.0932E-01
835.55	7.1433E-01
835.72	7.0008E-01
835.89	7.6653E-01
836.06	7.0233E-01
836.24	7.0176E-01
836.41	6.8195E-01
836.58	7.3788E-01
836.75	7.3528E-01
836.92	7.2315E-01
837.10	6.9645E-01
837.27	7.1538E-01
837.44	6.9596E-01
837.61	7.5181E-01
837.78	7.0297E-01
837.96	7.3075E-01
838.13	7.1733E-01
838.30	7.4427E-01
838.47	7.2937E-01
838.64	7.1771E-01
838.82	7.0900E-01
838.99	7.5983E-01
839.16	7.0390E-01
839.33	7.0977E-01
839.50	7.5413E-01
839.67	7.2534E-01
839.85	6.7430E-01
840.02	7.1498E-01
840.19	6.9198E-01
840.36	7.3560E-01
840.53	6.7725E-01
840.70	6.7227E-01
840.88	7.2611E-01
841.05	7.4189E-01
841.22	7.1214E-01
841.39	7.1428E-01
841.56	7.1976E-01
841.73	7.0945E-01
841.91	7.3306E-01
842.08	7.2970E-01
842.25	7.2179E-01
842.42	7.3227E-01
842.59	7.1847E-01
842.76	7.6551E-01
842.93	7.1885E-01
843.11	7.3071E-01
843.28	7.1710E-01
843.45	7.2013E-01
843.62	6.8725E-01
843.79	6.9901E-01
843.96	7.5155E-01
844.13	7.2287E-01
844.30	7.1842E-01
844.48	7.4684E-01
844.65	6.8777E-01
844.82	6.6724E-01
844.99	7.0000E-01
845.16	6.9458E-01
845.33	7.0177E-01
845.50	6.9919E-01
845.67	6.6161E-01
845.84	6.9534E-01
846.02	6.7751E-01
846.19	6.9576E-01
846.36	6.9942E-01
846.53	7.4324E-01
846.70	7.0600E-01
846.87	6.5425E-01
847.04	7.0715E-01
847.21	7.0257E-01
847.38	7.0151E-01
847.55	7.0052E-01
847.73	6.6445E-01
847.90	6.8040E-01
848.07	6.4865E-01
848.24	6.5791E-01
848.41	6.4043E-01
848.58	7.3520E-01
848.75	6.5870E-01
848.92	7.1079E-01
849.09	6.6651E-01
849.26	6.5125E-01
849.43	6.3266E-01
849.60	6.5629E-01
849.77	6.8423E-01
849.94	5.6596E-01
850.12	6.8199E-01
850.29	6.5867E-01
850.46	6.4355E-01
850.63	6.3150E-01
850.80	6.5613E-01
850.97	6.5162E-01
851.14	6.0638E-01
851.31	5.7652E-01
851.48	6.1677E-01
851.65	6.2958E-01
851.82	6.6194E-01
851.99	6.4839E-01
852.16	5.7147E-01
852.33	6.3064E-01
852.50	6.0870E-01
852.67	6.1487E-01
852.84	6.2469E-01
853.01	6.0147E-01
853.18	6.2227E-01
853.35	5.7729E-01
853.52	6.4937E-01
853.69	5.9571E-01
853.86	5.5731E-01
854.03	5.5010E-01
854.21	6.0253E-01
854.38	5.8605E-01
854.55	6.0980E-01
854.72	6.1679E-01
854.89	5.5764E-01
855.06	5.1869E-01
855.23	5.7861E-01
855.40	6.2035E-01
855.57	5.4652E-01
855.74	5.6749E-01
855.91	5.8053E-01
856.08	5.4520E-01
856.25	5.8064E-01
856.42	5.7352E-01
856.59	5.6964E-01
856.76	5.8537E-01
856.93	5.8190E-01
857.10	5.7931E-01
857.27	6.3390E-01
857.44	6.0117E-01
857.61	5.9885E-01
857.77	5.6092E-01
857.94	5.6575E-01
858.11	5.5707E-01
858.28	6.2537E-01
858.45	5.5623E-01
858.62	5.9520E-01
858.79	5.7200E-01
858.96	5.7636E-01
859.13	5.8051E-01
859.30	6.0937E-01
859.47	5.6820E-01
859.64	5.2376E-01
859.81	6.1056E-01
859.98	6.0966E-01
860.15	5.7925E-01
860.32	5.6143E-01
860.49	6.5490E-01
860.66	5.9432E-01
860.83	6.0534E-01
861.00	5.9218E-01
861.17	6.0055E-01
861.34	6.0553E-01
861.51	5.2308E-01
861.68	6.0624E-01
861.84	5.8660E-01
862.01	5.5050E-01
862.18	5.6441E-01
862.35	5.9101E-01
862.52	5.8799E-01
862.69	5.6564E-01
862.86	5.8010E-01
863.03	5.9496E-01
863.20	5.7508E-01
863.37	5.7955E-01
863.54	5.3528E-01
863.71	5.3963E-01
863.88	5.5951E-01
864.05	5.5100E-01
864.21	5.7872E-01
864.38	5.2114E-01
864.55	5.0399E-01
864.72	5.8562E-01
864.89	5.3902E-01
865.06	5.7543E-01
865.23	5.2612E-01
865.40	4.9988E-01
865.57	5.7246E-01
865.74	5.3856E-01
865.90	5.4489E-01
866.07	5.4020E-01
866.24	4.8182E-01
866.41	4.7087E-01
866.58	4.8893E-01
866.75	4.9756E-01
866.92	5.0270E-01
867.09	5.0205E-01
867.26	5.0418E-01
867.42	4.6535E-01
867.59	4.3913E-01
867.76	5.1351E-01
867.93	4.7665E-01
868.10	4.9497E-01
868.27	4.2609E-01
868.44	4.9878E-01
868.60	5.1614E-01
868.77	5.0663E-01
868.94	4.8389E-01
869.11	4.7963E-01
869.28	5.1984E-01
869.45	4.3516E-01
869.62	4.9921E-01
869.78	4.7831E-01
869.95	4.3875E-01
870.12	4.6496E-01
870.29	4.9008E-01
870.46	4.9622E-01
870.63	4.6056E-01
870.80	4.2365E-01
870.96	4.5319E-01
871.13	4.4270E-01
871.30	4.8194E-01
871.47	4.8780E-01
871.64	4.8428E-01
871.81	3.8244E-01
871.97	5.0713E-01
872.14	4.1563E-01
872.31	4.0290E-01
872.48	4.3746E-01
872.65	4.8712E-01
872.81	4.4873E-01
872.98	5.0194E-01
873.15	4.8395E-01
873.32	4.8256E-01
873.49	4.5448E-01
873.66	4.8286E-01
873.82	4.6094E-01
873.99	4.3631E-01
874.16	4.7206E-01
874.33	4.4548E-01
874.50	4.8787E-01
874.66	4.5729E-01
874.83	4.6930E-01
875.00	4.5949E-01
875.17	3.9226E-01
875.34	4.8540E-01
875.50	4.4008E-01
875.67	4.2375E-01
875.84	4.3497E-01
876.01	4.1628E-01
876.17	3.9356E-01
876.34	3.9090E-01
876.51	4.7295E-01
876.68	4.5231E-01
876.85	4.4010E-01
877.01	4.6015E-01
877.18	4.1126E-01
877.35	4.2505E-01
877.52	4.2205E-01
877.68	4.4498E-01
877.85	4.0733E-01
878.02	4.2179E-01
878.19	4.0396E-01
878.35	4.1735E-01
878.52	4.1037E-01
878.69	4.2239E-01
878.86	3.7541E-01
879.02	3.9941E-01
879.19	3.6010E-01
879.36	3.8562E-01
879.53	3.3354E-01
879.69	3.8120E-01
879.86	4.3476E-01
880.03	4.2370E-01
880.20	3.7390E-01
880.36	4.2914E-01
880.53	3.5859E-01
880.70	4.2900E-01
880.87	3.8231E-01
881.03	3.8128E-01
881.20	3.2247E-01
881.37	3.7303E-01
881.54	3.8909E-01
881.70	4.1936E-01
881.87	3.6099E-01
882.04	3.6325E-01
882.20	3.6750E-01
882.37	3.2057E-01
882.54	3.8377E-01
882.71	3.7807E-01
882.87	4.1741E-01
883.04	3.5994E-01
883.21	3.5924E-01
883.37	3.4064E-01
883.54	3.6226E-01
883.71	3.4828E-01
883.87	3.2254E-01
884.04	3.9634E-01
884.21	3.4437E-01
884.38	3.2063E-01
884.54	3.9974E-01
884.71	4.0068E-01
884.88	3.3915E-01
885.04	3.5706E-01
885.21	3.2562E-01
885.38	3.2736E-01
885.54	4.1559E-01
885.71	3.3299E-01
885.88	3.5866E-01
886.04	3.4665E-01
886.21	3.4855E-01
886.38	3.2203E-01
886.54	3.3099E-01
886.71	3.0114E-01
886.88	3.7399E-01
887.04	2.7835E-01
887.21	3.1107E-01
887.38	3.5270E-01
887.54	2.7716E-01
887.71	3.2606E-01
887.88	3.0084E-01
888.04	3.6843E-01
888.21	3.2794E-01
888.38	3.5746E-01
888.54	2.9293E-01
888.71	3.2362E-01
888.87	2.4478E-01
889.04	2.4478E-01
>>>>>End Processed Spectral Data<<<<<
