SpectraSuite Data File
++++++++++++++++++++++++++++++++++++
Date: Wed Jul 25 10:41:52 HST 2007
User: guest
Dark Spectrum Present: Yes
Reference Spectrum Present: No
Number of Sampled Component Spectra: 1
Spectrometers: USB4E01242
Integration Time (usec): 10000 (USB4E01242)
Spectra Averaged: 1 (USB4E01242)
Boxcar Smoothing: 10 (USB4E01242)
Correct for Electrical Dark: No (USB4E01242)
Strobe/Lamp Enabled: No (USB4E01242)
Correct for Detector Non-linearity: No (USB4E01242)
Correct for Stray Light: No (USB4E01242)
Number of Pixels in Processed Spectrum: 3648
>>>>>Begin Processed Spectral Data<<<<<
177.33	-0.0000E00
177.55	-0.0000E00
177.77	-0.0000E00
177.99	-0.0000E00
178.21	-0.0000E00
178.43	-0.0000E00
178.64	-0.0000E00
178.86	-0.0000E00
179.08	-0.0000E00
179.30	-0.0000E00
179.52	-0.0000E00
179.74	-0.0000E00
179.96	-0.0000E00
180.18	-0.0000E00
180.39	-0.0000E00
180.61	-0.0000E00
180.83	-0.0000E00
181.05	-0.0000E00
181.27	-0.0000E00
181.49	-0.0000E00
181.71	-0.0000E00
181.92	-0.0000E00
182.14	-0.0000E00
182.36	-0.0000E00
182.58	-0.0000E00
182.80	-0.0000E00
183.02	-0.0000E00
183.23	-0.0000E00
183.45	-0.0000E00
183.67	-0.0000E00
183.89	-0.0000E00
184.11	-0.0000E00
184.33	-0.0000E00
184.55	-0.0000E00
184.76	-0.0000E00
184.98	-0.0000E00
185.20	-0.0000E00
185.42	-0.0000E00
185.64	-0.0000E00
185.86	-0.0000E00
186.07	-0.0000E00
186.29	-0.0000E00
186.51	-0.0000E00
186.73	-0.0000E00
186.95	-0.0000E00
187.17	-0.0000E00
187.38	-0.0000E00
187.60	-0.0000E00
187.82	-0.0000E00
188.04	-0.0000E00
188.26	-0.0000E00
188.47	-0.0000E00
188.69	-0.0000E00
188.91	-0.0000E00
189.13	-0.0000E00
189.35	-0.0000E00
189.57	-0.0000E00
189.78	-0.0000E00
190.00	-0.0000E00
190.22	-0.0000E00
190.44	-0.0000E00
190.66	-0.0000E00
190.87	-0.0000E00
191.09	-0.0000E00
191.31	-0.0000E00
191.53	-0.0000E00
191.75	-0.0000E00
191.97	-0.0000E00
192.18	-0.0000E00
192.40	-0.0000E00
192.62	-0.0000E00
192.84	-0.0000E00
193.06	-0.0000E00
193.27	-0.0000E00
193.49	-0.0000E00
193.71	-0.0000E00
193.93	-0.0000E00
194.15	-0.0000E00
194.36	-0.0000E00
194.58	-0.0000E00
194.80	-0.0000E00
195.02	-0.0000E00
195.23	-0.0000E00
195.45	-0.0000E00
195.67	-0.0000E00
195.89	-0.0000E00
196.11	-0.0000E00
196.32	-0.0000E00
196.54	-0.0000E00
196.76	-0.0000E00
196.98	-0.0000E00
197.20	-0.0000E00
197.41	-0.0000E00
197.63	-0.0000E00
197.85	-0.0000E00
198.07	-0.0000E00
198.28	-0.0000E00
198.50	-0.0000E00
198.72	-0.0000E00
198.94	-0.0000E00
199.16	-0.0000E00
199.37	-0.0000E00
199.59	-0.0000E00
199.81	-0.0000E00
200.03	-0.0000E00
200.24	-0.0000E00
200.46	-0.0000E00
200.68	-0.0000E00
200.90	-0.0000E00
201.11	-0.0000E00
201.33	-0.0000E00
201.55	-0.0000E00
201.77	-0.0000E00
201.98	-0.0000E00
202.20	-0.0000E00
202.42	-0.0000E00
202.64	-0.0000E00
202.86	-0.0000E00
203.07	-0.0000E00
203.29	-0.0000E00
203.51	-0.0000E00
203.73	-0.0000E00
203.94	-0.0000E00
204.16	-0.0000E00
204.38	-0.0000E00
204.60	-0.0000E00
204.81	-0.0000E00
205.03	-0.0000E00
205.25	-0.0000E00
205.46	-0.0000E00
205.68	-0.0000E00
205.90	-0.0000E00
206.12	-0.0000E00
206.33	-0.0000E00
206.55	-0.0000E00
206.77	-0.0000E00
206.99	-0.0000E00
207.20	-0.0000E00
207.42	-0.0000E00
207.64	-0.0000E00
207.86	-0.0000E00
208.07	-0.0000E00
208.29	-0.0000E00
208.51	-0.0000E00
208.72	-0.0000E00
208.94	-0.0000E00
209.16	-0.0000E00
209.38	-0.0000E00
209.59	-0.0000E00
209.81	-0.0000E00
210.03	-0.0000E00
210.25	-0.0000E00
210.46	-0.0000E00
210.68	-0.0000E00
210.90	-0.0000E00
211.11	-0.0000E00
211.33	-0.0000E00
211.55	-0.0000E00
211.77	-0.0000E00
211.98	-0.0000E00
212.20	-0.0000E00
212.42	-0.0000E00
212.63	-0.0000E00
212.85	-0.0000E00
213.07	-0.0000E00
213.29	-0.0000E00
213.50	-0.0000E00
213.72	-0.0000E00
213.94	-0.0000E00
214.15	-0.0000E00
214.37	-0.0000E00
214.59	-0.0000E00
214.80	-0.0000E00
215.02	-0.0000E00
215.24	-0.0000E00
215.45	-0.0000E00
215.67	-0.0000E00
215.89	-0.0000E00
216.11	-0.0000E00
216.32	-0.0000E00
216.54	-0.0000E00
216.76	-0.0000E00
216.97	-0.0000E00
217.19	-0.0000E00
217.41	-0.0000E00
217.62	-0.0000E00
217.84	-0.0000E00
218.06	-0.0000E00
218.27	-0.0000E00
218.49	-0.0000E00
218.71	-0.0000E00
218.92	-0.0000E00
219.14	-0.0000E00
219.36	-0.0000E00
219.57	-0.0000E00
219.79	-0.0000E00
220.01	-0.0000E00
220.22	-0.0000E00
220.44	-0.0000E00
220.66	-0.0000E00
220.88	-0.0000E00
221.09	-0.0000E00
221.31	-0.0000E00
221.53	-0.0000E00
221.74	-0.0000E00
221.96	-0.0000E00
222.17	-0.0000E00
222.39	-0.0000E00
222.61	-0.0000E00
222.82	-0.0000E00
223.04	-0.0000E00
223.26	-0.0000E00
223.47	-0.0000E00
223.69	-0.0000E00
223.91	-0.0000E00
224.12	-0.0000E00
224.34	-0.0000E00
224.56	-0.0000E00
224.77	-0.0000E00
224.99	-0.0000E00
225.21	-0.0000E00
225.42	-0.0000E00
225.64	-0.0000E00
225.86	-0.0000E00
226.07	-0.0000E00
226.29	-0.0000E00
226.50	-0.0000E00
226.72	-0.0000E00
226.94	-0.0000E00
227.15	-0.0000E00
227.37	-0.0000E00
227.59	-0.0000E00
227.80	-0.0000E00
228.02	-0.0000E00
228.24	-0.0000E00
228.45	-0.0000E00
228.67	-0.0000E00
228.88	-0.0000E00
229.10	-0.0000E00
229.32	-0.0000E00
229.53	-0.0000E00
229.75	-0.0000E00
229.97	-0.0000E00
230.18	-0.0000E00
230.40	-0.0000E00
230.61	-0.0000E00
230.83	-0.0000E00
231.05	-0.0000E00
231.26	-0.0000E00
231.48	-0.0000E00
231.70	-0.0000E00
231.91	-0.0000E00
232.13	-0.0000E00
232.34	-0.0000E00
232.56	-0.0000E00
232.78	-0.0000E00
232.99	-0.0000E00
233.21	-0.0000E00
233.42	-0.0000E00
233.64	-0.0000E00
233.86	-0.0000E00
234.07	-0.0000E00
234.29	-0.0000E00
234.50	-0.0000E00
234.72	-0.0000E00
234.94	-0.0000E00
235.15	-0.0000E00
235.37	-0.0000E00
235.58	-0.0000E00
235.80	-0.0000E00
236.02	-0.0000E00
236.23	-0.0000E00
236.45	-0.0000E00
236.66	-0.0000E00
236.88	-0.0000E00
237.10	-0.0000E00
237.31	-0.0000E00
237.53	-0.0000E00
237.74	-0.0000E00
237.96	-0.0000E00
238.17	-0.0000E00
238.39	-0.0000E00
238.61	-0.0000E00
238.82	-0.0000E00
239.04	-0.0000E00
239.25	-0.0000E00
239.47	-0.0000E00
239.69	-0.0000E00
239.90	-0.0000E00
240.12	-0.0000E00
240.33	-0.0000E00
240.55	-0.0000E00
240.76	-0.0000E00
240.98	-0.0000E00
241.20	-0.0000E00
241.41	-0.0000E00
241.63	-0.0000E00
241.84	-0.0000E00
242.06	-0.0000E00
242.27	-0.0000E00
242.49	-0.0000E00
242.70	-0.0000E00
242.92	-0.0000E00
243.14	-0.0000E00
243.35	-0.0000E00
243.57	-0.0000E00
243.78	-0.0000E00
244.00	-0.0000E00
244.21	-0.0000E00
244.43	-0.0000E00
244.64	-0.0000E00
244.86	-0.0000E00
245.08	-0.0000E00
245.29	-0.0000E00
245.51	-0.0000E00
245.72	-0.0000E00
245.94	-0.0000E00
246.15	-0.0000E00
246.37	-0.0000E00
246.58	-0.0000E00
246.80	-0.0000E00
247.01	-0.0000E00
247.23	-0.0000E00
247.45	-0.0000E00
247.66	-0.0000E00
247.88	-0.0000E00
248.09	-0.0000E00
248.31	-0.0000E00
248.52	-0.0000E00
248.74	-0.0000E00
248.95	-0.0000E00
249.17	-0.0000E00
249.38	-0.0000E00
249.60	-0.0000E00
249.81	-0.0000E00
250.03	-0.0000E00
250.24	-0.0000E00
250.46	-0.0000E00
250.67	-0.0000E00
250.89	-0.0000E00
251.10	-0.0000E00
251.32	-0.0000E00
251.53	-0.0000E00
251.75	-0.0000E00
251.97	-0.0000E00
252.18	-0.0000E00
252.40	-0.0000E00
252.61	-0.0000E00
252.83	-0.0000E00
253.04	-0.0000E00
253.26	-0.0000E00
253.47	-0.0000E00
253.69	-0.0000E00
253.90	-0.0000E00
254.12	-0.0000E00
254.33	-0.0000E00
254.55	-0.0000E00
254.76	-0.0000E00
254.98	-0.0000E00
255.19	-0.0000E00
255.41	-0.0000E00
255.62	-0.0000E00
255.84	-0.0000E00
256.05	-0.0000E00
256.27	-0.0000E00
256.48	-0.0000E00
256.70	-0.0000E00
256.91	-0.0000E00
257.13	-0.0000E00
257.34	-0.0000E00
257.55	-0.0000E00
257.77	-0.0000E00
257.98	-0.0000E00
258.20	-0.0000E00
258.41	-0.0000E00
258.63	-0.0000E00
258.84	-0.0000E00
259.06	-0.0000E00
259.27	-0.0000E00
259.49	-0.0000E00
259.70	-0.0000E00
259.92	-0.0000E00
260.13	-0.0000E00
260.35	-0.0000E00
260.56	-0.0000E00
260.78	-0.0000E00
260.99	-0.0000E00
261.21	-0.0000E00
261.42	-0.0000E00
261.63	-0.0000E00
261.85	-0.0000E00
262.06	-0.0000E00
262.28	-0.0000E00
262.49	-0.0000E00
262.71	-0.0000E00
262.92	-0.0000E00
263.14	-0.0000E00
263.35	-0.0000E00
263.57	-0.0000E00
263.78	-0.0000E00
264.00	-0.0000E00
264.21	-0.0000E00
264.42	-0.0000E00
264.64	-0.0000E00
264.85	-0.0000E00
265.07	-0.0000E00
265.28	-0.0000E00
265.50	-0.0000E00
265.71	-0.0000E00
265.93	-0.0000E00
266.14	-0.0000E00
266.35	-0.0000E00
266.57	-0.0000E00
266.78	-0.0000E00
267.00	-0.0000E00
267.21	-0.0000E00
267.43	-0.0000E00
267.64	-0.0000E00
267.85	-0.0000E00
268.07	-0.0000E00
268.28	-0.0000E00
268.50	-0.0000E00
268.71	-0.0000E00
268.93	-0.0000E00
269.14	-0.0000E00
269.35	-0.0000E00
269.57	-0.0000E00
269.78	-0.0000E00
270.00	-0.0000E00
270.21	-0.0000E00
270.43	-0.0000E00
270.64	-0.0000E00
270.85	-0.0000E00
271.07	-0.0000E00
271.28	-0.0000E00
271.50	-0.0000E00
271.71	-0.0000E00
271.92	-0.0000E00
272.14	-0.0000E00
272.35	-0.0000E00
272.57	-0.0000E00
272.78	-0.0000E00
272.99	-0.0000E00
273.21	-0.0000E00
273.42	-0.0000E00
273.64	-0.0000E00
273.85	-0.0000E00
274.07	-0.0000E00
274.28	-0.0000E00
274.49	-0.0000E00
274.71	-0.0000E00
274.92	-0.0000E00
275.13	-0.0000E00
275.35	-0.0000E00
275.56	-0.0000E00
275.78	-0.0000E00
275.99	-0.0000E00
276.20	-0.0000E00
276.42	-0.0000E00
276.63	-0.0000E00
276.85	-0.0000E00
277.06	-0.0000E00
277.27	-0.0000E00
277.49	-0.0000E00
277.70	-0.0000E00
277.92	-0.0000E00
278.13	-0.0000E00
278.34	-0.0000E00
278.56	-0.0000E00
278.77	-0.0000E00
278.98	-0.0000E00
279.20	-0.0000E00
279.41	-0.0000E00
279.63	-0.0000E00
279.84	-0.0000E00
280.05	-0.0000E00
280.27	-0.0000E00
280.48	-0.0000E00
280.69	-0.0000E00
280.91	-0.0000E00
281.12	-0.0000E00
281.33	-0.0000E00
281.55	-0.0000E00
281.76	-0.0000E00
281.98	-0.0000E00
282.19	-0.0000E00
282.40	-0.0000E00
282.62	-0.0000E00
282.83	-0.0000E00
283.04	-0.0000E00
283.26	-0.0000E00
283.47	-0.0000E00
283.68	-0.0000E00
283.90	-0.0000E00
284.11	-0.0000E00
284.32	-0.0000E00
284.54	-0.0000E00
284.75	-0.0000E00
284.96	-0.0000E00
285.18	-0.0000E00
285.39	-0.0000E00
285.60	-0.0000E00
285.82	-0.0000E00
286.03	-0.0000E00
286.24	-0.0000E00
286.46	-0.0000E00
286.67	-0.0000E00
286.88	-0.0000E00
287.10	-0.0000E00
287.31	-0.0000E00
287.52	-0.0000E00
287.74	-0.0000E00
287.95	-0.0000E00
288.16	-0.0000E00
288.38	-0.0000E00
288.59	-0.0000E00
288.80	-0.0000E00
289.02	-0.0000E00
289.23	-0.0000E00
289.44	-0.0000E00
289.66	-0.0000E00
289.87	-0.0000E00
290.08	-0.0000E00
290.30	-0.0000E00
290.51	-0.0000E00
290.72	-0.0000E00
290.94	-0.0000E00
291.15	-0.0000E00
291.36	-0.0000E00
291.57	-0.0000E00
291.79	-0.0000E00
292.00	-0.0000E00
292.21	-0.0000E00
292.43	-0.0000E00
292.64	-0.0000E00
292.85	-0.0000E00
293.07	-0.0000E00
293.28	-0.0000E00
293.49	-0.0000E00
293.70	-0.0000E00
293.92	-0.0000E00
294.13	-0.0000E00
294.34	-0.0000E00
294.56	-0.0000E00
294.77	-0.0000E00
294.98	-0.0000E00
295.20	-0.0000E00
295.41	-0.0000E00
295.62	-0.0000E00
295.83	-0.0000E00
296.05	-0.0000E00
296.26	-0.0000E00
296.47	-0.0000E00
296.69	-0.0000E00
296.90	-0.0000E00
297.11	-0.0000E00
297.32	-0.0000E00
297.54	-0.0000E00
297.75	-0.0000E00
297.96	-0.0000E00
298.17	-0.0000E00
298.39	-0.0000E00
298.60	-0.0000E00
298.81	-0.0000E00
299.03	-0.0000E00
299.24	-0.0000E00
299.45	-0.0000E00
299.66	-0.0000E00
299.88	-0.0000E00
300.09	-1.1204E-01
300.30	-1.4415E-01
300.51	-3.8014E-02
300.73	-1.2816E-01
300.94	-8.6092E-02
301.15	-3.7309E-02
301.36	-1.1256E-01
301.58	-6.6255E-02
301.79	1.0269E-01
302.00	-3.2283E-02
302.21	-4.8149E-02
302.43	4.6463E-02
302.64	-3.2790E-02
302.85	6.2315E-02
303.06	-3.7252E-02
303.28	6.6647E-02
303.49	-2.5450E-03
303.70	1.3334E-01
303.91	3.1614E-02
304.13	1.3870E-02
304.34	6.9349E-02
304.55	1.6387E-01
304.76	3.5741E-03
304.98	5.1596E-02
305.19	1.5395E-01
305.40	4.6056E-02
305.61	1.4739E-01
305.82	9.1812E-02
306.04	1.7342E-01
306.25	6.5653E-02
306.46	2.1807E-01
306.67	1.0944E-01
306.89	1.3396E-01
307.10	2.0866E-01
307.31	1.9907E-01
307.52	1.7003E-01
307.74	2.6121E-01
307.95	2.6150E-01
308.16	1.0405E-01
308.37	2.2121E-01
308.58	1.9698E-01
308.80	2.7007E-01
309.01	2.5200E-01
309.22	1.4692E-01
309.43	1.9504E-01
309.64	2.7786E-01
309.86	3.4551E-01
310.07	2.5347E-01
310.28	2.8863E-01
310.49	3.0593E-01
310.70	2.1761E-01
310.92	3.1886E-01
311.13	2.7748E-01
311.34	2.9384E-01
311.55	3.1212E-01
311.76	3.0402E-01
311.98	4.3333E-01
312.19	3.1272E-01
312.40	2.6720E-01
312.61	2.9963E-01
312.82	3.5541E-01
313.04	2.8411E-01
313.25	3.7587E-01
313.46	3.0512E-01
313.67	3.1229E-01
313.88	3.4062E-01
314.10	3.2229E-01
314.31	3.2655E-01
314.52	3.3754E-01
314.73	3.6116E-01
314.94	4.3582E-01
315.16	4.4496E-01
315.37	5.1988E-01
315.58	3.5986E-01
315.79	4.4203E-01
316.00	4.7204E-01
316.21	5.1636E-01
316.43	3.4275E-01
316.64	3.9887E-01
316.85	3.7782E-01
317.06	4.6124E-01
317.27	5.1540E-01
317.48	4.2237E-01
317.70	4.5687E-01
317.91	4.5042E-01
318.12	5.3510E-01
318.33	4.2198E-01
318.54	4.5434E-01
318.75	4.8208E-01
318.97	5.6447E-01
319.18	4.9377E-01
319.39	4.6460E-01
319.60	4.9306E-01
319.81	5.5708E-01
320.02	4.8469E-01
320.24	4.9110E-01
320.45	5.4193E-01
320.66	4.4305E-01
320.87	5.2144E-01
321.08	6.0130E-01
321.29	5.8793E-01
321.50	5.1501E-01
321.72	4.8027E-01
321.93	6.1640E-01
322.14	5.1472E-01
322.35	6.1361E-01
322.56	6.2617E-01
322.77	6.5718E-01
322.98	5.3618E-01
323.20	6.4551E-01
323.41	5.0250E-01
323.62	4.9669E-01
323.83	5.9983E-01
324.04	5.2186E-01
324.25	5.1956E-01
324.46	5.7769E-01
324.67	6.0639E-01
324.89	5.6723E-01
325.10	5.5523E-01
325.31	6.8849E-01
325.52	6.3449E-01
325.73	5.7497E-01
325.94	6.1585E-01
326.15	5.4725E-01
326.36	7.2496E-01
326.58	7.7167E-01
326.79	7.4961E-01
327.00	5.4839E-01
327.21	7.5332E-01
327.42	7.5957E-01
327.63	7.6304E-01
327.84	7.2653E-01
328.05	8.0127E-01
328.26	6.0958E-01
328.48	7.4260E-01
328.69	8.0197E-01
328.90	7.4275E-01
329.11	7.4860E-01
329.32	7.6236E-01
329.53	7.0126E-01
329.74	7.6205E-01
329.95	8.4047E-01
330.16	8.0799E-01
330.37	7.5117E-01
330.59	9.4419E-01
330.80	8.3489E-01
331.01	8.4826E-01
331.22	8.4050E-01
331.43	7.5188E-01
331.64	7.4128E-01
331.85	9.0816E-01
332.06	8.6894E-01
332.27	7.4376E-01
332.48	8.8284E-01
332.69	9.2932E-01
332.91	8.6519E-01
333.12	8.4937E-01
333.33	9.7758E-01
333.54	7.5791E-01
333.75	7.1994E-01
333.96	7.7433E-01
334.17	7.4048E-01
334.38	7.5705E-01
334.59	8.2740E-01
334.80	8.4140E-01
335.01	8.0754E-01
335.22	7.5422E-01
335.43	7.2937E-01
335.64	7.5587E-01
335.86	7.9844E-01
336.07	8.0030E-01
336.28	6.7253E-01
336.49	8.2317E-01
336.70	7.2494E-01
336.91	7.2429E-01
337.12	7.0286E-01
337.33	8.5733E-01
337.54	7.5782E-01
337.75	7.4396E-01
337.96	8.6032E-01
338.17	8.5147E-01
338.38	7.3714E-01
338.59	8.8964E-01
338.80	7.2453E-01
339.01	9.0020E-01
339.22	8.8895E-01
339.43	9.0619E-01
339.65	8.4492E-01
339.86	8.0062E-01
340.07	7.9548E-01
340.28	8.7223E-01
340.49	8.6672E-01
340.70	8.8854E-01
340.91	7.8936E-01
341.12	7.4739E-01
341.33	8.5490E-01
341.54	8.9896E-01
341.75	8.0520E-01
341.96	8.4145E-01
342.17	8.7166E-01
342.38	8.0904E-01
342.59	8.4613E-01
342.80	7.6694E-01
343.01	8.2749E-01
343.22	8.1478E-01
343.43	7.8507E-01
343.64	7.4641E-01
343.85	8.2693E-01
344.06	6.9620E-01
344.27	8.0820E-01
344.48	8.9310E-01
344.69	8.1131E-01
344.90	8.3438E-01
345.11	7.9190E-01
345.32	7.7863E-01
345.53	6.9055E-01
345.74	8.4995E-01
345.95	7.2034E-01
346.16	8.0338E-01
346.37	8.0023E-01
346.58	7.9795E-01
346.79	7.2921E-01
347.00	8.3342E-01
347.21	8.5041E-01
347.42	7.6143E-01
347.63	7.0805E-01
347.84	8.0282E-01
348.05	8.5204E-01
348.26	7.9292E-01
348.47	8.2880E-01
348.68	8.1396E-01
348.89	7.0430E-01
349.10	7.9924E-01
349.31	8.3481E-01
349.52	7.8107E-01
349.73	8.1072E-01
349.94	8.2944E-01
350.15	7.7280E-01
350.36	9.2220E-01
350.57	8.9635E-01
350.78	9.1128E-01
350.99	9.1110E-01
351.20	8.5556E-01
351.41	9.1320E-01
351.62	8.6432E-01
351.83	8.8185E-01
352.04	8.7878E-01
352.25	9.4048E-01
352.46	9.0000E-01
352.67	8.7131E-01
352.88	1.0072E00
353.09	7.8910E-01
353.30	8.9803E-01
353.51	9.1193E-01
353.72	9.9644E-01
353.93	9.0271E-01
354.14	8.5794E-01
354.35	9.9288E-01
354.56	8.9580E-01
354.77	1.0320E00
354.98	8.2127E-01
355.19	8.8286E-01
355.39	9.0769E-01
355.60	8.8338E-01
355.81	9.3307E-01
356.02	9.5634E-01
356.23	8.3507E-01
356.44	8.0225E-01
356.65	9.4439E-01
356.86	8.7303E-01
357.07	8.5043E-01
357.28	9.3744E-01
357.49	9.0010E-01
357.70	9.4594E-01
357.91	8.4206E-01
358.12	8.4418E-01
358.33	9.3258E-01
358.54	9.6636E-01
358.75	9.1635E-01
358.96	9.8662E-01
359.16	8.4883E-01
359.37	1.0296E00
359.58	9.8219E-01
359.79	9.4885E-01
360.00	9.5623E-01
360.21	9.8545E-01
360.42	9.7169E-01
360.63	1.1743E00
360.84	1.0807E00
361.05	9.2865E-01
361.26	1.0338E00
361.47	1.1279E00
361.68	1.0370E00
361.88	1.0954E00
362.09	1.0375E00
362.30	1.1182E00
362.51	1.0895E00
362.72	1.2133E00
362.93	1.1248E00
363.14	1.1580E00
363.35	1.1336E00
363.56	1.1363E00
363.77	1.2601E00
363.98	1.2322E00
364.18	1.3092E00
364.39	1.2935E00
364.60	1.2401E00
364.81	1.2706E00
365.02	1.3027E00
365.23	1.3353E00
365.44	1.3426E00
365.65	1.3332E00
365.86	1.2417E00
366.07	1.4235E00
366.27	1.3578E00
366.48	1.3953E00
366.69	1.3579E00
366.90	1.4318E00
367.11	1.4031E00
367.32	1.4230E00
367.53	1.3610E00
367.74	1.3234E00
367.95	1.3252E00
368.15	1.3671E00
368.36	1.4216E00
368.57	1.2952E00
368.78	1.4873E00
368.99	1.3731E00
369.20	1.3665E00
369.41	1.4254E00
369.62	1.3792E00
369.82	1.4670E00
370.03	1.3779E00
370.24	1.4036E00
370.45	1.3585E00
370.66	1.3051E00
370.87	1.2991E00
371.08	1.3210E00
371.28	1.3146E00
371.49	1.3116E00
371.70	1.2978E00
371.91	1.2981E00
372.12	1.2348E00
372.33	1.2347E00
372.54	1.2843E00
372.74	1.2674E00
372.95	1.1530E00
373.16	1.2961E00
373.37	1.3096E00
373.58	1.1528E00
373.79	1.2774E00
374.00	1.2390E00
374.20	1.3552E00
374.41	1.3381E00
374.62	1.2864E00
374.83	1.2929E00
375.04	1.3226E00
375.25	1.3490E00
375.45	1.2041E00
375.66	1.3851E00
375.87	1.3811E00
376.08	1.4244E00
376.29	1.4164E00
376.50	1.4165E00
376.70	1.3957E00
376.91	1.4576E00
377.12	1.4742E00
377.33	1.3671E00
377.54	1.3959E00
377.75	1.4900E00
377.95	1.4320E00
378.16	1.4672E00
378.37	1.3975E00
378.58	1.4775E00
378.79	1.3323E00
379.00	1.4728E00
379.20	1.3649E00
379.41	1.3970E00
379.62	1.4095E00
379.83	1.3409E00
380.04	1.3498E00
380.24	1.2910E00
380.45	1.2182E00
380.66	1.2317E00
380.87	1.2602E00
381.08	1.2700E00
381.28	1.1741E00
381.49	1.2250E00
381.70	1.1348E00
381.91	1.1505E00
382.12	1.1965E00
382.32	1.1260E00
382.53	1.1776E00
382.74	1.0987E00
382.95	1.1367E00
383.16	1.1712E00
383.36	1.0544E00
383.57	1.1729E00
383.78	1.2183E00
383.99	1.1494E00
384.20	1.1803E00
384.40	1.1971E00
384.61	1.2742E00
384.82	1.3040E00
385.03	1.2528E00
385.23	1.2895E00
385.44	1.2982E00
385.65	1.3454E00
385.86	1.2681E00
386.07	1.4480E00
386.27	1.2482E00
386.48	1.3368E00
386.69	1.4019E00
386.90	1.2344E00
387.10	1.3530E00
387.31	1.4351E00
387.52	1.3849E00
387.73	1.4442E00
387.94	1.5051E00
388.14	1.3853E00
388.35	1.4471E00
388.56	1.6241E00
388.77	1.5563E00
388.97	1.5710E00
389.18	1.6320E00
389.39	1.5422E00
389.60	1.5651E00
389.80	1.6410E00
390.01	1.6054E00
390.22	1.5921E00
390.43	1.4813E00
390.63	1.5159E00
390.84	1.5029E00
391.05	1.6121E00
391.26	1.5032E00
391.46	1.4783E00
391.67	1.4766E00
391.88	1.3720E00
392.09	1.3668E00
392.29	1.4798E00
392.50	1.3926E00
392.71	1.4181E00
392.92	1.4264E00
393.12	1.3960E00
393.33	1.4325E00
393.54	1.3495E00
393.74	1.2962E00
393.95	1.3350E00
394.16	1.4236E00
394.37	1.3649E00
394.57	1.3801E00
394.78	1.4513E00
394.99	1.4230E00
395.19	1.4336E00
395.40	1.4499E00
395.61	1.4634E00
395.82	1.5659E00
396.02	1.5242E00
396.23	1.6098E00
396.44	1.6427E00
396.65	1.6144E00
396.85	1.7182E00
397.06	1.7156E00
397.27	1.7816E00
397.47	1.8748E00
397.68	1.8615E00
397.89	1.8748E00
398.09	1.8890E00
398.30	1.9982E00
398.51	1.9722E00
398.72	2.0862E00
398.92	2.1898E00
399.13	2.2275E00
399.34	2.3076E00
399.54	2.3415E00
399.75	2.3245E00
399.96	2.2803E00
400.16	2.2950E00
400.37	2.3939E00
400.58	2.3880E00
400.78	2.4259E00
400.99	2.4091E00
401.20	2.4946E00
401.41	2.4752E00
401.61	2.4093E00
401.82	2.4721E00
402.03	2.4232E00
402.23	2.4178E00
402.44	2.5063E00
402.65	2.4539E00
402.85	2.4677E00
403.06	2.4627E00
403.27	2.4849E00
403.47	2.4596E00
403.68	2.4039E00
403.89	2.4688E00
404.09	2.4153E00
404.30	2.3599E00
404.51	2.4692E00
404.71	2.4585E00
404.92	2.5235E00
405.13	2.3542E00
405.33	2.4140E00
405.54	2.4384E00
405.75	2.4628E00
405.95	2.4526E00
406.16	2.3468E00
406.37	2.4490E00
406.57	2.4591E00
406.78	2.4888E00
406.99	2.4700E00
407.19	2.5061E00
407.40	2.5509E00
407.60	2.5309E00
407.81	2.5216E00
408.02	2.4624E00
408.22	2.4867E00
408.43	2.5740E00
408.64	2.5522E00
408.84	2.5441E00
409.05	2.4688E00
409.26	2.5904E00
409.46	2.6227E00
409.67	2.5470E00
409.87	2.5972E00
410.08	2.5839E00
410.29	2.6713E00
410.49	2.5392E00
410.70	2.6560E00
410.91	2.6320E00
411.11	2.7079E00
411.32	2.6834E00
411.52	2.6076E00
411.73	2.7367E00
411.94	2.7306E00
412.14	2.7721E00
412.35	2.7176E00
412.56	2.7916E00
412.76	2.7899E00
412.97	2.7343E00
413.17	2.7800E00
413.38	2.8393E00
413.59	2.7505E00
413.79	2.7835E00
414.00	2.8196E00
414.20	2.8437E00
414.41	2.7477E00
414.62	2.8276E00
414.82	2.7793E00
415.03	2.7144E00
415.23	2.8228E00
415.44	2.7364E00
415.65	2.8079E00
415.85	2.7332E00
416.06	2.8063E00
416.26	2.7694E00
416.47	2.7829E00
416.68	2.8226E00
416.88	2.8407E00
417.09	2.6577E00
417.29	2.7672E00
417.50	2.8052E00
417.71	2.7753E00
417.91	2.7598E00
418.12	2.7480E00
418.32	2.8145E00
418.53	2.8007E00
418.73	2.7331E00
418.94	2.7451E00
419.15	2.7322E00
419.35	2.8451E00
419.56	2.7814E00
419.76	2.6921E00
419.97	2.8306E00
420.17	2.7814E00
420.38	2.6706E00
420.59	2.8201E00
420.79	2.8234E00
421.00	2.7603E00
421.20	2.6717E00
421.41	2.7457E00
421.61	2.7167E00
421.82	2.7595E00
422.02	2.7449E00
422.23	2.6186E00
422.44	2.8105E00
422.64	2.7199E00
422.85	2.7499E00
423.05	2.7624E00
423.26	2.7758E00
423.46	2.7598E00
423.67	2.7254E00
423.87	2.7381E00
424.08	2.7197E00
424.29	2.7202E00
424.49	2.7934E00
424.70	2.6821E00
424.90	2.7704E00
425.11	2.7746E00
425.31	2.7560E00
425.52	2.7820E00
425.72	2.7070E00
425.93	2.7262E00
426.13	2.6661E00
426.34	2.6590E00
426.54	2.6494E00
426.75	2.6461E00
426.95	2.6248E00
427.16	2.6139E00
427.36	2.5833E00
427.57	2.5142E00
427.78	2.4851E00
427.98	2.4781E00
428.19	2.4821E00
428.39	2.4159E00
428.60	2.4110E00
428.80	2.4201E00
429.01	2.4591E00
429.21	2.3581E00
429.42	2.5195E00
429.62	2.4990E00
429.83	2.4552E00
430.03	2.4059E00
430.24	2.5037E00
430.44	2.4378E00
430.65	2.5128E00
430.85	2.5385E00
431.06	2.4952E00
431.26	2.5991E00
431.47	2.5029E00
431.67	2.6823E00
431.88	2.6520E00
432.08	2.6974E00
432.29	2.7169E00
432.49	2.6826E00
432.70	2.6962E00
432.90	2.8172E00
433.11	2.8171E00
433.31	2.6988E00
433.52	2.7999E00
433.72	2.7769E00
433.93	2.8142E00
434.13	2.8135E00
434.34	2.9208E00
434.54	2.8223E00
434.74	2.8683E00
434.95	2.9066E00
435.15	2.8824E00
435.36	2.9231E00
435.56	2.8773E00
435.77	2.9549E00
435.97	2.8875E00
436.18	3.0682E00
436.38	2.9776E00
436.59	2.9429E00
436.79	3.0120E00
437.00	3.0026E00
437.20	2.9728E00
437.41	2.9612E00
437.61	3.0001E00
437.81	2.9956E00
438.02	2.9994E00
438.22	3.0471E00
438.43	2.9794E00
438.63	3.1145E00
438.84	3.0312E00
439.04	3.0497E00
439.25	3.0812E00
439.45	3.0495E00
439.66	3.0671E00
439.86	3.0975E00
440.06	3.2139E00
440.27	3.1309E00
440.47	3.0962E00
440.68	3.2255E00
440.88	3.1922E00
441.09	3.2672E00
441.29	3.2708E00
441.49	3.2753E00
441.70	3.3441E00
441.90	3.3137E00
442.11	3.3537E00
442.31	3.3988E00
442.52	3.3338E00
442.72	3.3305E00
442.92	3.2775E00
443.13	3.3720E00
443.33	3.2617E00
443.54	3.3400E00
443.74	3.3174E00
443.95	3.3681E00
444.15	3.3322E00
444.35	3.3832E00
444.56	3.3300E00
444.76	3.3024E00
444.97	3.4536E00
445.17	3.4081E00
445.37	3.4875E00
445.58	3.3733E00
445.78	3.4025E00
445.99	3.3404E00
446.19	3.3541E00
446.39	3.3887E00
446.60	3.3489E00
446.80	3.3584E00
447.01	3.4633E00
447.21	3.5328E00
447.41	3.4394E00
447.62	3.5367E00
447.82	3.5064E00
448.03	3.5564E00
448.23	3.5653E00
448.43	3.5903E00
448.64	3.6173E00
448.84	3.6109E00
449.05	3.5803E00
449.25	3.6311E00
449.45	3.5750E00
449.66	3.6002E00
449.86	3.6189E00
450.07	3.5660E00
450.27	3.6213E00
450.47	3.5928E00
450.68	3.6191E00
450.88	3.5841E00
451.08	3.6137E00
451.29	3.6221E00
451.49	3.6067E00
451.70	3.5867E00
451.90	3.5969E00
452.10	3.5806E00
452.31	3.5045E00
452.51	3.5849E00
452.71	3.5682E00
452.92	3.5547E00
453.12	3.6202E00
453.32	3.5761E00
453.53	3.4855E00
453.73	3.5083E00
453.93	3.5202E00
454.14	3.6334E00
454.34	3.6103E00
454.55	3.6424E00
454.75	3.6191E00
454.95	3.5664E00
455.16	3.6726E00
455.36	3.5916E00
455.56	3.7016E00
455.77	3.6827E00
455.97	3.6615E00
456.17	3.6356E00
456.38	3.6878E00
456.58	3.7461E00
456.78	3.6749E00
456.99	3.6127E00
457.19	3.6750E00
457.39	3.6665E00
457.60	3.6945E00
457.80	3.6790E00
458.00	3.6589E00
458.21	3.7313E00
458.41	3.7127E00
458.61	3.6770E00
458.82	3.6714E00
459.02	3.6456E00
459.22	3.7775E00
459.43	3.7545E00
459.63	3.7276E00
459.83	3.6963E00
460.03	3.7356E00
460.24	3.7733E00
460.44	3.7171E00
460.64	3.6757E00
460.85	3.7536E00
461.05	3.7451E00
461.25	3.7533E00
461.46	3.7241E00
461.66	3.6917E00
461.86	3.7484E00
462.07	3.7756E00
462.27	3.7515E00
462.47	3.7970E00
462.67	3.7443E00
462.88	3.7696E00
463.08	3.6755E00
463.28	3.7280E00
463.49	3.7667E00
463.69	3.7233E00
463.89	3.7316E00
464.09	3.7338E00
464.30	3.6855E00
464.50	3.7406E00
464.70	3.7450E00
464.91	3.6234E00
465.11	3.6328E00
465.31	3.6477E00
465.51	3.6982E00
465.72	3.6619E00
465.92	3.6577E00
466.12	3.6112E00
466.33	3.6649E00
466.53	3.6441E00
466.73	3.6142E00
466.93	3.6622E00
467.14	3.6052E00
467.34	3.7315E00
467.54	3.6661E00
467.74	3.6752E00
467.95	3.6591E00
468.15	3.6320E00
468.35	3.6800E00
468.55	3.7082E00
468.76	3.7054E00
468.96	3.5994E00
469.16	3.6870E00
469.37	3.6758E00
469.57	3.6760E00
469.77	3.6417E00
469.97	3.6922E00
470.18	3.7281E00
470.38	3.7437E00
470.58	3.7190E00
470.78	3.7456E00
470.99	3.7363E00
471.19	3.7050E00
471.39	3.7393E00
471.59	3.6852E00
471.79	3.7280E00
472.00	3.7401E00
472.20	3.7732E00
472.40	3.7323E00
472.60	3.7395E00
472.81	3.8127E00
473.01	3.7929E00
473.21	3.7433E00
473.41	3.6839E00
473.62	3.8043E00
473.82	3.8392E00
474.02	3.7679E00
474.22	3.7736E00
474.42	3.8632E00
474.63	3.8073E00
474.83	3.7788E00
475.03	3.7897E00
475.23	3.8109E00
475.44	3.7837E00
475.64	3.8055E00
475.84	3.8202E00
476.04	3.8064E00
476.24	3.8297E00
476.45	3.8443E00
476.65	3.8124E00
476.85	3.8047E00
477.05	3.8549E00
477.25	3.8812E00
477.46	3.8559E00
477.66	3.8455E00
477.86	3.8926E00
478.06	3.8935E00
478.26	3.9013E00
478.47	3.8866E00
478.67	3.9473E00
478.87	3.8859E00
479.07	3.8544E00
479.27	3.9053E00
479.47	3.9229E00
479.68	3.9173E00
479.88	3.9274E00
480.08	3.9238E00
480.28	3.9348E00
480.48	3.9267E00
480.69	3.9355E00
480.89	3.9102E00
481.09	3.9127E00
481.29	3.9637E00
481.49	3.8289E00
481.69	3.9164E00
481.90	3.8789E00
482.10	3.8767E00
482.30	3.9028E00
482.50	3.8579E00
482.70	3.8083E00
482.90	3.7965E00
483.11	3.7747E00
483.31	3.7529E00
483.51	3.6627E00
483.71	3.6568E00
483.91	3.6497E00
484.11	3.6332E00
484.32	3.6101E00
484.52	3.6099E00
484.72	3.5885E00
484.92	3.5672E00
485.12	3.5471E00
485.32	3.5293E00
485.52	3.5193E00
485.73	3.4704E00
485.93	3.4606E00
486.13	3.4712E00
486.33	3.4935E00
486.53	3.5142E00
486.73	3.5346E00
486.93	3.5298E00
487.14	3.5930E00
487.34	3.6014E00
487.54	3.6157E00
487.74	3.6539E00
487.94	3.5939E00
488.14	3.6670E00
488.34	3.6777E00
488.54	3.6846E00
488.75	3.6888E00
488.95	3.7113E00
489.15	3.7059E00
489.35	3.7030E00
489.55	3.7161E00
489.75	3.7415E00
489.95	3.7312E00
490.15	3.7337E00
490.36	3.7620E00
490.56	3.7477E00
490.76	3.7869E00
490.96	3.7774E00
491.16	3.7873E00
491.36	3.7776E00
491.56	3.7697E00
491.76	3.7204E00
491.96	3.7791E00
492.17	3.7759E00
492.37	3.7959E00
492.57	3.8189E00
492.77	3.8219E00
492.97	3.8560E00
493.17	3.8295E00
493.37	3.8304E00
493.57	3.8288E00
493.77	3.8329E00
493.97	3.8790E00
494.17	3.8442E00
494.38	3.8596E00
494.58	3.8372E00
494.78	3.8416E00
494.98	3.8389E00
495.18	3.8621E00
495.38	3.8565E00
495.58	3.8712E00
495.78	3.8708E00
495.98	3.8868E00
496.18	3.8774E00
496.38	3.8479E00
496.58	3.8079E00
496.78	3.8655E00
496.99	3.8163E00
497.19	3.8524E00
497.39	3.8663E00
497.59	3.8314E00
497.79	3.7867E00
497.99	3.8121E00
498.19	3.8159E00
498.39	3.8161E00
498.59	3.7726E00
498.79	3.7614E00
498.99	3.7518E00
499.19	3.7681E00
499.39	3.7656E00
499.59	3.7389E00
499.79	3.7344E00
499.99	3.7306E00
500.19	3.7609E00
500.40	3.7263E00
500.60	3.7453E00
500.80	3.7380E00
501.00	3.7234E00
501.20	3.7120E00
501.40	3.7516E00
501.60	3.7158E00
501.80	3.7196E00
502.00	3.7425E00
502.20	3.7259E00
502.40	3.7344E00
502.60	3.7100E00
502.80	3.7915E00
503.00	3.7741E00
503.20	3.7576E00
503.40	3.7510E00
503.60	3.7765E00
503.80	3.8103E00
504.00	3.7960E00
504.20	3.8240E00
504.40	3.8170E00
504.60	3.8405E00
504.80	3.8458E00
505.00	3.8387E00
505.20	3.8666E00
505.40	3.8514E00
505.60	3.8479E00
505.80	3.8661E00
506.00	3.8721E00
506.20	3.8687E00
506.40	3.8734E00
506.60	3.8756E00
506.80	3.8534E00
507.00	3.8814E00
507.20	3.8944E00
507.40	3.9170E00
507.60	3.8822E00
507.80	3.8993E00
508.00	3.9105E00
508.20	3.9448E00
508.40	3.9270E00
508.60	3.9018E00
508.80	3.8838E00
509.00	3.9584E00
509.20	3.9333E00
509.40	3.9198E00
509.60	3.9336E00
509.80	3.9125E00
510.00	3.9632E00
510.20	3.9495E00
510.40	3.9570E00
510.60	3.9249E00
510.80	3.9081E00
511.00	3.9017E00
511.20	3.9542E00
511.40	3.9128E00
511.60	3.9213E00
511.80	3.9333E00
512.00	3.9298E00
512.20	3.9419E00
512.40	3.9134E00
512.60	3.9226E00
512.80	3.9213E00
513.00	3.9440E00
513.20	3.9251E00
513.40	3.8962E00
513.59	3.8769E00
513.79	3.9006E00
513.99	3.8821E00
514.19	3.8825E00
514.39	3.8556E00
514.59	3.8782E00
514.79	3.8459E00
514.99	3.8361E00
515.19	3.8472E00
515.39	3.8548E00
515.59	3.8549E00
515.79	3.7981E00
515.99	3.8556E00
516.19	3.8441E00
516.39	3.8325E00
516.59	3.8442E00
516.79	3.8801E00
516.98	3.8397E00
517.18	3.8938E00
517.38	3.9019E00
517.58	3.9185E00
517.78	3.9332E00
517.98	3.9624E00
518.18	3.9965E00
518.38	4.0760E00
518.58	4.0621E00
518.78	4.0786E00
518.98	4.1068E00
519.18	4.1531E00
519.38	4.2044E00
519.57	4.2179E00
519.77	4.2142E00
519.97	4.2714E00
520.17	4.2860E00
520.37	4.3070E00
520.57	4.3496E00
520.77	4.3802E00
520.97	4.3889E00
521.17	4.3993E00
521.37	4.4500E00
521.57	4.4853E00
521.76	4.4679E00
521.96	4.5175E00
522.16	4.5179E00
522.36	4.5690E00
522.56	4.5167E00
522.76	4.5510E00
522.96	4.5930E00
523.16	4.5717E00
523.36	4.6048E00
523.55	4.5682E00
523.75	4.5765E00
523.95	4.5815E00
524.15	4.5630E00
524.35	4.5832E00
524.55	4.5907E00
524.75	4.6107E00
524.95	4.6195E00
525.14	4.6051E00
525.34	4.5950E00
525.54	4.5707E00
525.74	4.6054E00
525.94	4.6167E00
526.14	4.6502E00
526.34	4.6455E00
526.54	4.6852E00
526.73	4.6478E00
526.93	4.7117E00
527.13	4.7352E00
527.33	4.7606E00
527.53	4.7974E00
527.73	4.7898E00
527.93	4.8399E00
528.12	4.8171E00
528.32	4.8592E00
528.52	4.9180E00
528.72	4.9512E00
528.92	4.9429E00
529.12	4.9530E00
529.32	4.9766E00
529.51	5.0048E00
529.71	5.0189E00
529.91	5.0180E00
530.11	5.0486E00
530.31	5.0869E00
530.51	5.0513E00
530.70	5.0460E00
530.90	5.0793E00
531.10	5.0584E00
531.30	5.0810E00
531.50	5.0766E00
531.70	5.0914E00
531.89	5.0598E00
532.09	5.0768E00
532.29	5.0735E00
532.49	5.1222E00
532.69	5.1097E00
532.88	5.1077E00
533.08	5.0866E00
533.28	5.1252E00
533.48	5.1813E00
533.68	5.1638E00
533.88	5.2160E00
534.07	5.2122E00
534.27	5.2166E00
534.47	5.2502E00
534.67	5.1929E00
534.87	5.2564E00
535.06	5.2568E00
535.26	5.2452E00
535.46	5.2360E00
535.66	5.3184E00
535.86	5.2603E00
536.05	5.2643E00
536.25	5.2784E00
536.45	5.2886E00
536.65	5.2788E00
536.85	5.2595E00
537.04	5.2817E00
537.24	5.3229E00
537.44	5.2317E00
537.64	5.2004E00
537.83	5.2568E00
538.03	5.2638E00
538.23	5.2876E00
538.43	5.2725E00
538.63	5.2240E00
538.82	5.2481E00
539.02	5.2469E00
539.22	5.2766E00
539.42	5.2334E00
539.61	5.2680E00
539.81	5.2774E00
540.01	5.2362E00
540.21	5.2646E00
540.41	5.2477E00
540.60	5.2644E00
540.80	5.2707E00
541.00	5.2801E00
541.20	5.3248E00
541.39	5.3185E00
541.59	5.3213E00
541.79	5.3379E00
541.99	5.3885E00
542.18	5.3723E00
542.38	5.3874E00
542.58	5.3928E00
542.78	5.4228E00
542.97	5.3828E00
543.17	5.4364E00
543.37	5.4062E00
543.57	5.4706E00
543.76	5.5104E00
543.96	5.4927E00
544.16	5.4606E00
544.36	5.4884E00
544.55	5.5508E00
544.75	5.5229E00
544.95	5.5538E00
545.14	5.4755E00
545.34	5.5669E00
545.54	5.5276E00
545.74	5.5507E00
545.93	5.5945E00
546.13	5.5810E00
546.33	5.5515E00
546.53	5.5380E00
546.72	5.6081E00
546.92	5.6074E00
547.12	5.5761E00
547.31	5.6112E00
547.51	5.5991E00
547.71	5.6424E00
547.91	5.6462E00
548.10	5.5855E00
548.30	5.6209E00
548.50	5.6793E00
548.69	5.6631E00
548.89	5.6544E00
549.09	5.6627E00
549.29	5.6452E00
549.48	5.7360E00
549.68	5.6372E00
549.88	5.6968E00
550.07	5.7076E00
550.27	5.6995E00
550.47	5.5204E00
550.66	5.7663E00
550.86	5.6637E00
551.06	5.7669E00
551.25	5.7059E00
551.45	5.7727E00
551.65	5.7839E00
551.85	5.8198E00
552.04	5.7117E00
552.24	5.7771E00
552.44	5.7448E00
552.63	5.7474E00
552.83	5.7947E00
553.03	5.7397E00
553.22	5.8372E00
553.42	5.7813E00
553.62	5.8648E00
553.81	5.8015E00
554.01	5.8477E00
554.21	5.7918E00
554.40	5.8418E00
554.60	5.8195E00
554.80	5.8470E00
554.99	5.8471E00
555.19	5.8410E00
555.39	5.8511E00
555.58	5.8090E00
555.78	5.8136E00
555.98	5.7917E00
556.17	5.7901E00
556.37	5.8038E00
556.56	5.7993E00
556.76	5.7958E00
556.96	5.7524E00
557.15	5.7811E00
557.35	5.7578E00
557.55	5.7553E00
557.74	5.7393E00
557.94	5.7688E00
558.14	5.7923E00
558.33	5.7328E00
558.53	5.7214E00
558.73	5.7589E00
558.92	5.7128E00
559.12	5.7915E00
559.31	5.7963E00
559.51	5.8304E00
559.71	5.7802E00
559.90	5.8188E00
560.10	5.8252E00
560.30	5.8212E00
560.49	5.8021E00
560.69	5.8562E00
560.88	5.8945E00
561.08	5.8177E00
561.28	5.8356E00
561.47	5.8841E00
561.67	5.8884E00
561.86	5.8557E00
562.06	5.8824E00
562.26	5.9125E00
562.45	5.8836E00
562.65	5.9095E00
562.84	5.8413E00
563.04	5.8761E00
563.24	5.8753E00
563.43	5.9339E00
563.63	5.9339E00
563.82	5.8973E00
564.02	5.9320E00
564.22	5.9485E00
564.41	5.8784E00
564.61	5.9122E00
564.80	5.9156E00
565.00	5.8773E00
565.20	5.9363E00
565.39	5.8491E00
565.59	5.8242E00
565.78	5.8789E00
565.98	5.8236E00
566.18	5.9131E00
566.37	5.8778E00
566.57	5.8548E00
566.76	5.8370E00
566.96	5.9079E00
567.15	5.8511E00
567.35	5.9298E00
567.55	5.8831E00
567.74	5.8924E00
567.94	5.8595E00
568.13	5.8978E00
568.33	5.9345E00
568.52	5.9219E00
568.72	5.8932E00
568.91	5.8799E00
569.11	5.8929E00
569.31	5.9516E00
569.50	5.8806E00
569.70	5.9311E00
569.89	5.9161E00
570.09	5.9105E00
570.28	5.8963E00
570.48	5.9227E00
570.67	5.9874E00
570.87	5.9096E00
571.07	5.9121E00
571.26	5.9765E00
571.46	5.9718E00
571.65	5.9947E00
571.85	6.0179E00
572.04	5.9854E00
572.24	6.0458E00
572.43	5.9844E00
572.63	6.0458E00
572.82	6.0008E00
573.02	6.0473E00
573.21	6.0056E00
573.41	6.0385E00
573.60	6.0837E00
573.80	6.0567E00
573.99	6.0293E00
574.19	6.0884E00
574.38	6.0402E00
574.58	6.0598E00
574.78	5.9946E00
574.97	6.0589E00
575.17	6.0436E00
575.36	6.0099E00
575.56	5.9718E00
575.75	6.0534E00
575.95	6.0011E00
576.14	5.9780E00
576.34	6.0459E00
576.53	5.9980E00
576.73	6.0056E00
576.92	5.9654E00
577.12	6.0642E00
577.31	5.9394E00
577.51	6.0689E00
577.70	6.0309E00
577.90	6.0276E00
578.09	6.0649E00
578.29	6.0173E00
578.48	6.0858E00
578.68	6.0484E00
578.87	6.1379E00
579.06	6.0524E00
579.26	6.0966E00
579.45	6.0666E00
579.65	6.1749E00
579.84	6.1211E00
580.04	6.1656E00
580.23	6.2025E00
580.43	6.1140E00
580.62	6.1855E00
580.82	6.2049E00
581.01	6.1735E00
581.21	6.1710E00
581.40	6.1553E00
581.60	6.2308E00
581.79	6.2434E00
581.99	6.1958E00
582.18	6.1950E00
582.37	6.2363E00
582.57	6.2444E00
582.76	6.2737E00
582.96	6.2849E00
583.15	6.2662E00
583.35	6.2613E00
583.54	6.2708E00
583.74	6.2523E00
583.93	6.2145E00
584.12	6.1878E00
584.32	6.2822E00
584.51	6.2409E00
584.71	6.1731E00
584.90	6.1810E00
585.10	6.1908E00
585.29	6.1926E00
585.49	6.1982E00
585.68	6.2051E00
585.87	6.1661E00
586.07	6.1288E00
586.26	6.1055E00
586.46	6.0885E00
586.65	6.0521E00
586.85	6.0666E00
587.04	5.9579E00
587.23	6.0368E00
587.43	5.9999E00
587.62	5.8815E00
587.82	5.9683E00
588.01	5.9018E00
588.20	5.9067E00
588.40	5.8405E00
588.59	5.8820E00
588.79	5.8878E00
588.98	5.9118E00
589.18	5.8652E00
589.37	5.9121E00
589.56	5.8480E00
589.76	5.8322E00
589.95	5.9467E00
590.15	5.9278E00
590.34	5.8875E00
590.53	5.9849E00
590.73	5.9532E00
590.92	5.9676E00
591.11	6.0295E00
591.31	6.0378E00
591.50	6.0798E00
591.70	6.0591E00
591.89	6.1296E00
592.08	6.0536E00
592.28	6.0405E00
592.47	6.1462E00
592.67	6.1388E00
592.86	6.1472E00
593.05	6.0907E00
593.25	6.1788E00
593.44	6.1497E00
593.63	6.2099E00
593.83	6.1504E00
594.02	6.2381E00
594.22	6.2272E00
594.41	6.2794E00
594.60	6.2173E00
594.80	6.2278E00
594.99	6.2520E00
595.18	6.2577E00
595.38	6.2508E00
595.57	6.2825E00
595.76	6.3087E00
595.96	6.2985E00
596.15	6.2376E00
596.34	6.3891E00
596.54	6.3682E00
596.73	6.3347E00
596.93	6.3656E00
597.12	6.3282E00
597.31	6.3789E00
597.51	6.3518E00
597.70	6.3835E00
597.89	6.3636E00
598.09	6.3453E00
598.28	6.4786E00
598.47	6.3713E00
598.67	6.4010E00
598.86	6.3655E00
599.05	6.4611E00
599.25	6.4101E00
599.44	6.4438E00
599.63	6.4732E00
599.83	6.4062E00
600.02	6.4147E00
600.21	6.4304E00
600.41	6.4524E00
600.60	6.4003E00
600.79	6.4558E00
600.98	6.4721E00
601.18	6.5481E00
601.37	6.4542E00
601.56	6.4744E00
601.76	6.6054E00
601.95	6.4945E00
602.14	6.5233E00
602.34	6.5273E00
602.53	6.5975E00
602.72	6.5260E00
602.92	6.5773E00
603.11	6.5434E00
603.30	6.5971E00
603.49	6.5593E00
603.69	6.6699E00
603.88	6.6268E00
604.07	6.6780E00
604.27	6.6417E00
604.46	6.6022E00
604.65	6.6556E00
604.84	6.6537E00
605.04	6.6852E00
605.23	6.6580E00
605.42	6.6557E00
605.62	6.6748E00
605.81	6.6167E00
606.00	6.6365E00
606.19	6.6830E00
606.39	6.6791E00
606.58	6.6268E00
606.77	6.6406E00
606.97	6.5992E00
607.16	6.6626E00
607.35	6.6891E00
607.54	6.6441E00
607.74	6.7003E00
607.93	6.7130E00
608.12	6.6373E00
608.31	6.6662E00
608.51	6.6806E00
608.70	6.6429E00
608.89	6.6341E00
609.08	6.6009E00
609.28	6.6594E00
609.47	6.6759E00
609.66	6.6965E00
609.85	6.7096E00
610.05	6.7170E00
610.24	6.6520E00
610.43	6.6850E00
610.62	6.6626E00
610.82	6.6482E00
611.01	6.6997E00
611.20	6.6775E00
611.39	6.6861E00
611.59	6.6809E00
611.78	6.7146E00
611.97	6.6940E00
612.16	6.7544E00
612.35	6.6717E00
612.55	6.6789E00
612.74	6.7194E00
612.93	6.7039E00
613.12	6.6243E00
613.32	6.6819E00
613.51	6.6890E00
613.70	6.6831E00
613.89	6.6882E00
614.08	6.7102E00
614.28	6.7051E00
614.47	6.6767E00
614.66	6.6977E00
614.85	6.7486E00
615.04	6.7373E00
615.24	6.8056E00
615.43	6.7451E00
615.62	6.7282E00
615.81	6.7459E00
616.00	6.6820E00
616.20	6.7683E00
616.39	6.7919E00
616.58	6.8046E00
616.77	6.8254E00
616.96	6.9366E00
617.16	6.9514E00
617.35	6.9334E00
617.54	6.9137E00
617.73	6.9095E00
617.92	6.9350E00
618.12	7.0210E00
618.31	6.9983E00
618.50	7.0300E00
618.69	7.0159E00
618.88	7.1230E00
619.07	7.0894E00
619.27	7.1238E00
619.46	7.1512E00
619.65	7.2168E00
619.84	7.1408E00
620.03	7.1328E00
620.22	7.2189E00
620.42	7.0779E00
620.61	7.2364E00
620.80	7.2198E00
620.99	7.2046E00
621.18	7.2719E00
621.37	7.1761E00
621.57	7.0969E00
621.76	7.2049E00
621.95	7.1862E00
622.14	7.1273E00
622.33	7.0918E00
622.52	7.1454E00
622.71	7.1995E00
622.91	7.2331E00
623.10	7.1970E00
623.29	7.1684E00
623.48	7.1289E00
623.67	7.1886E00
623.86	7.1875E00
624.05	7.1742E00
624.25	7.1113E00
624.44	7.1804E00
624.63	7.2196E00
624.82	7.1605E00
625.01	7.1244E00
625.20	7.1975E00
625.39	7.0944E00
625.58	7.1806E00
625.78	7.2024E00
625.97	7.0794E00
626.16	7.1359E00
626.35	7.1230E00
626.54	7.1861E00
626.73	7.1838E00
626.92	7.1309E00
627.11	7.1269E00
627.31	7.1256E00
627.50	7.1200E00
627.69	7.1638E00
627.88	7.1881E00
628.07	7.0134E00
628.26	7.1243E00
628.45	7.1006E00
628.64	7.1423E00
628.83	7.1355E00
629.02	7.0280E00
629.22	7.2390E00
629.41	7.1183E00
629.60	7.0314E00
629.79	7.1988E00
629.98	7.1184E00
630.17	7.1688E00
630.36	7.1652E00
630.55	7.1831E00
630.74	7.2146E00
630.93	7.2680E00
631.12	7.1468E00
631.31	7.1591E00
631.51	7.2409E00
631.70	7.2245E00
631.89	7.1421E00
632.08	7.1712E00
632.27	7.1965E00
632.46	7.1754E00
632.65	7.1775E00
632.84	7.1015E00
633.03	7.2439E00
633.22	7.1683E00
633.41	7.2505E00
633.60	7.2539E00
633.79	7.1862E00
633.98	7.0990E00
634.17	7.1821E00
634.37	7.1688E00
634.56	7.2219E00
634.75	7.0971E00
634.94	7.2064E00
635.13	7.1599E00
635.32	7.2267E00
635.51	7.2215E00
635.70	7.1372E00
635.89	7.3128E00
636.08	7.1973E00
636.27	7.1526E00
636.46	7.2612E00
636.65	7.1940E00
636.84	7.1305E00
637.03	7.2374E00
637.22	7.2217E00
637.41	7.1777E00
637.60	7.2147E00
637.79	7.2273E00
637.98	7.2016E00
638.17	7.2146E00
638.36	7.1523E00
638.55	7.0964E00
638.74	7.1025E00
638.93	7.1241E00
639.12	7.0954E00
639.31	7.1092E00
639.50	7.0682E00
639.69	7.0424E00
639.88	7.1227E00
640.07	7.0450E00
640.26	7.1251E00
640.45	7.0803E00
640.64	7.1100E00
640.83	7.1166E00
641.02	7.1746E00
641.21	7.0935E00
641.40	6.9819E00
641.59	7.1050E00
641.78	7.1288E00
641.97	7.1144E00
642.16	7.1470E00
642.35	7.1230E00
642.54	7.1173E00
642.73	7.0708E00
642.92	6.9113E00
643.11	7.1070E00
643.30	7.1212E00
643.49	7.0276E00
643.68	7.0535E00
643.87	6.9619E00
644.06	7.0323E00
644.25	6.9611E00
644.44	6.9690E00
644.63	6.9432E00
644.82	6.9287E00
645.01	6.9632E00
645.20	6.9452E00
645.39	6.8876E00
645.58	6.8557E00
645.77	6.8455E00
645.96	6.9000E00
646.15	6.8241E00
646.34	6.8353E00
646.53	6.8043E00
646.72	6.8109E00
646.91	6.7287E00
647.10	6.8771E00
647.29	6.7565E00
647.47	6.8101E00
647.66	6.7393E00
647.85	6.7013E00
648.04	6.7052E00
648.23	6.7033E00
648.42	6.8513E00
648.61	6.6304E00
648.80	6.7174E00
648.99	6.7600E00
649.18	6.6544E00
649.37	6.7488E00
649.56	6.7133E00
649.75	6.6950E00
649.94	6.8027E00
650.13	6.7778E00
650.31	6.8012E00
650.50	6.7546E00
650.69	6.8267E00
650.88	6.7757E00
651.07	6.7964E00
651.26	6.8313E00
651.45	6.9272E00
651.64	6.8511E00
651.83	6.7676E00
652.02	6.8161E00
652.21	6.7557E00
652.40	6.7570E00
652.58	6.8949E00
652.77	6.7018E00
652.96	6.6582E00
653.15	6.7184E00
653.34	6.6905E00
653.53	6.6572E00
653.72	6.6107E00
653.91	6.4801E00
654.10	6.4960E00
654.29	6.4008E00
654.47	6.5292E00
654.66	6.3132E00
654.85	6.3430E00
655.04	6.2712E00
655.23	6.3435E00
655.42	6.2167E00
655.61	6.3040E00
655.80	6.2707E00
655.98	6.3436E00
656.17	6.3311E00
656.36	6.3733E00
656.55	6.3185E00
656.74	6.4738E00
656.93	6.4733E00
657.12	6.5206E00
657.31	6.4530E00
657.49	6.6602E00
657.68	6.6447E00
657.87	6.5421E00
658.06	6.7703E00
658.25	6.6875E00
658.44	6.7936E00
658.63	6.7486E00
658.81	6.7285E00
659.00	6.8172E00
659.19	6.7913E00
659.38	6.9540E00
659.57	6.9702E00
659.76	6.8971E00
659.95	7.0300E00
660.13	6.8649E00
660.32	6.9978E00
660.51	6.9762E00
660.70	7.0587E00
660.89	6.9977E00
661.08	7.0307E00
661.26	6.9755E00
661.45	7.0498E00
661.64	6.9928E00
661.83	6.9761E00
662.02	7.0166E00
662.21	7.0761E00
662.39	7.1209E00
662.58	7.0434E00
662.77	7.1824E00
662.96	7.1115E00
663.15	7.0205E00
663.33	7.1455E00
663.52	7.0507E00
663.71	7.0507E00
663.90	7.0608E00
664.09	6.9673E00
664.28	7.0415E00
664.46	6.9933E00
664.65	7.0022E00
664.84	6.9452E00
665.03	7.0286E00
665.22	7.0634E00
665.40	7.0691E00
665.59	7.0099E00
665.78	7.0144E00
665.97	7.0055E00
666.16	7.0683E00
666.34	7.1196E00
666.53	7.0015E00
666.72	7.1109E00
666.91	7.0469E00
667.09	7.0540E00
667.28	7.1214E00
667.47	7.1044E00
667.66	7.0646E00
667.85	7.0603E00
668.03	6.7935E00
668.22	7.0952E00
668.41	7.0291E00
668.60	6.8808E00
668.78	7.0925E00
668.97	7.0196E00
669.16	6.9645E00
669.35	7.0830E00
669.54	6.9393E00
669.72	7.0737E00
669.91	6.9960E00
670.10	7.0308E00
670.29	7.0189E00
670.47	7.0716E00
670.66	7.1099E00
670.85	7.0350E00
671.04	6.9401E00
671.22	6.9263E00
671.41	7.0066E00
671.60	7.0244E00
671.79	7.0286E00
671.97	6.9835E00
672.16	7.1283E00
672.35	7.0629E00
672.54	7.0608E00
672.72	6.9815E00
672.91	6.9211E00
673.10	6.9651E00
673.28	6.9275E00
673.47	6.9422E00
673.66	6.9532E00
673.85	7.0834E00
674.03	7.0181E00
674.22	6.9990E00
674.41	6.9414E00
674.60	6.9474E00
674.78	6.8251E00
674.97	6.8941E00
675.16	7.1357E00
675.34	7.0385E00
675.53	6.9581E00
675.72	6.9022E00
675.91	7.1077E00
676.09	7.0138E00
676.28	7.0932E00
676.47	7.0467E00
676.65	6.9294E00
676.84	7.0365E00
677.03	7.0982E00
677.22	6.9852E00
677.40	7.0707E00
677.59	7.0206E00
677.78	6.9754E00
677.96	7.0036E00
678.15	7.0704E00
678.34	7.1364E00
678.52	6.9478E00
678.71	6.9864E00
678.90	6.9956E00
679.08	7.0242E00
679.27	6.9152E00
679.46	7.0780E00
679.64	6.9897E00
679.83	6.9416E00
680.02	6.9544E00
680.21	6.7893E00
680.39	7.0056E00
680.58	6.9271E00
680.77	6.8851E00
680.95	6.9095E00
681.14	6.7753E00
681.33	6.8974E00
681.51	6.9677E00
681.70	6.9257E00
681.89	6.9626E00
682.07	6.8746E00
682.26	6.7247E00
682.44	6.8972E00
682.63	6.8703E00
682.82	6.8935E00
683.00	6.6357E00
683.19	6.7761E00
683.38	6.7892E00
683.56	6.7912E00
683.75	6.6995E00
683.94	6.5331E00
684.12	6.4790E00
684.31	6.5866E00
684.50	6.5655E00
684.68	6.4067E00
684.87	6.3474E00
685.05	6.3488E00
685.24	6.1707E00
685.43	6.2077E00
685.61	6.1554E00
685.80	6.0176E00
685.99	6.0810E00
686.17	5.9100E00
686.36	6.0311E00
686.54	5.9711E00
686.73	5.8954E00
686.92	5.8830E00
687.10	5.8040E00
687.29	5.8840E00
687.48	5.7482E00
687.66	5.9227E00
687.85	5.7740E00
688.03	5.8219E00
688.22	5.7165E00
688.41	5.8649E00
688.59	5.7047E00
688.78	5.8710E00
688.96	5.9106E00
689.15	5.9857E00
689.34	5.7056E00
689.52	6.0247E00
689.71	5.9033E00
689.89	5.9668E00
690.08	6.0822E00
690.27	5.9858E00
690.45	5.9609E00
690.64	5.9466E00
690.82	5.8761E00
691.01	5.9968E00
691.19	5.9495E00
691.38	6.0040E00
691.57	6.0557E00
691.75	5.9175E00
691.94	6.0622E00
692.12	5.9412E00
692.31	6.0442E00
692.50	5.9544E00
692.68	6.0171E00
692.87	6.0930E00
693.05	6.0338E00
693.24	5.9094E00
693.42	5.9713E00
693.61	6.0394E00
693.79	6.1196E00
693.98	5.9826E00
694.17	6.0547E00
694.35	6.1534E00
694.54	6.1714E00
694.72	6.1138E00
694.91	6.1271E00
695.09	6.1342E00
695.28	6.1484E00
695.46	6.1731E00
695.65	6.1920E00
695.83	6.2107E00
696.02	6.2946E00
696.21	6.3247E00
696.39	6.2173E00
696.58	6.2938E00
696.76	6.0502E00
696.95	6.1637E00
697.13	6.1805E00
697.32	6.2219E00
697.50	6.2089E00
697.69	6.2193E00
697.87	6.2581E00
698.06	6.2366E00
698.24	6.1042E00
698.43	6.1212E00
698.61	6.2612E00
698.80	6.1378E00
698.98	6.2328E00
699.17	5.9635E00
699.35	6.1457E00
699.54	6.0747E00
699.72	5.9255E00
699.91	6.1548E00
700.09	6.1181E00
700.28	6.1243E00
700.46	6.1180E00
700.65	6.0544E00
700.83	6.1245E00
701.02	6.1736E00
701.20	5.9116E00
701.39	6.2018E00
701.57	6.0940E00
701.76	5.9857E00
701.94	6.0830E00
702.13	6.1232E00
702.31	5.9024E00
702.50	6.3589E00
702.68	6.2424E00
702.87	6.2854E00
703.05	6.2846E00
703.24	6.2157E00
703.42	5.9493E00
703.61	6.2931E00
703.79	6.3350E00
703.98	6.1263E00
704.16	6.2174E00
704.35	6.1552E00
704.53	6.2471E00
704.72	6.2501E00
704.90	6.2902E00
705.08	6.1518E00
705.27	6.3941E00
705.45	6.3654E00
705.64	6.4149E00
705.82	6.3666E00
706.01	6.3662E00
706.19	6.2924E00
706.38	6.3374E00
706.56	6.4976E00
706.75	6.4602E00
706.93	6.4068E00
707.11	6.2501E00
707.30	6.4595E00
707.48	6.4281E00
707.67	6.2943E00
707.85	6.3497E00
708.04	6.4164E00
708.22	6.3851E00
708.40	6.2582E00
708.59	6.1900E00
708.77	6.3972E00
708.96	6.2961E00
709.14	6.3473E00
709.33	6.2686E00
709.51	6.3639E00
709.69	6.3492E00
709.88	6.3808E00
710.06	6.3406E00
710.25	6.2277E00
710.43	6.3206E00
710.62	6.3967E00
710.80	6.2918E00
710.98	6.3478E00
711.17	6.2756E00
711.35	6.3255E00
711.54	6.3583E00
711.72	6.2131E00
711.90	6.3483E00
712.09	6.3241E00
712.27	6.1515E00
712.46	6.2623E00
712.64	6.1265E00
712.82	6.3188E00
713.01	6.3090E00
713.19	6.2778E00
713.37	6.1560E00
713.56	6.0944E00
713.74	6.1892E00
713.93	6.0368E00
714.11	5.9233E00
714.29	5.7694E00
714.48	5.9524E00
714.66	5.9023E00
714.85	5.7201E00
715.03	5.6997E00
715.21	5.6122E00
715.40	5.4540E00
715.58	5.4241E00
715.76	5.2593E00
715.95	5.2774E00
716.13	5.3775E00
716.31	5.2423E00
716.50	5.1454E00
716.68	5.0046E00
716.87	5.0566E00
717.05	4.9999E00
717.23	4.7781E00
717.42	4.8479E00
717.60	4.7428E00
717.78	4.7630E00
717.97	4.7192E00
718.15	4.6330E00
718.33	4.5603E00
718.52	4.6513E00
718.70	4.7183E00
718.88	4.5862E00
719.07	4.8787E00
719.25	4.6964E00
719.43	4.7928E00
719.62	4.7535E00
719.80	4.7711E00
719.98	4.9634E00
720.17	4.8870E00
720.35	4.8890E00
720.53	5.0303E00
720.72	5.0933E00
720.90	5.0055E00
721.08	4.9616E00
721.27	5.0277E00
721.45	5.0262E00
721.63	5.0114E00
721.82	5.1270E00
722.00	5.0088E00
722.18	4.9957E00
722.36	5.1267E00
722.55	5.0478E00
722.73	5.0354E00
722.91	5.0001E00
723.10	5.0852E00
723.28	4.9596E00
723.46	4.7025E00
723.65	4.8607E00
723.83	4.8398E00
724.01	4.7760E00
724.19	4.8753E00
724.38	4.8638E00
724.56	4.9056E00
724.74	4.9526E00
724.93	4.6902E00
725.11	4.7264E00
725.29	4.8916E00
725.47	4.8750E00
725.66	4.8535E00
725.84	4.8154E00
726.02	4.8505E00
726.21	4.9831E00
726.39	4.8370E00
726.57	4.8740E00
726.75	4.8139E00
726.94	4.9843E00
727.12	4.8427E00
727.30	4.8310E00
727.48	4.7637E00
727.67	4.9307E00
727.85	4.8230E00
728.03	4.8819E00
728.21	4.9806E00
728.40	4.8114E00
728.58	5.0115E00
728.76	4.8868E00
728.94	4.9723E00
729.13	5.0577E00
729.31	4.8852E00
729.49	5.0296E00
729.67	5.0359E00
729.86	5.0986E00
730.04	4.9535E00
730.22	5.1952E00
730.40	5.1913E00
730.59	5.2235E00
730.77	5.2654E00
730.95	5.4325E00
731.13	5.3640E00
731.31	5.4378E00
731.50	5.2862E00
731.68	5.6058E00
731.86	5.5140E00
732.04	5.6155E00
732.23	5.7551E00
732.41	5.6760E00
732.59	5.7575E00
732.77	5.7817E00
732.95	5.7998E00
733.14	5.7319E00
733.32	5.9234E00
733.50	5.8330E00
733.68	5.8318E00
733.86	5.8384E00
734.05	5.9221E00
734.23	5.9518E00
734.41	5.7081E00
734.59	5.8463E00
734.77	5.8778E00
734.96	5.6626E00
735.14	5.9501E00
735.32	5.8943E00
735.50	5.8779E00
735.68	6.0525E00
735.87	5.9348E00
736.05	6.1512E00
736.23	5.7822E00
736.41	6.0669E00
736.59	6.0085E00
736.77	5.9435E00
736.96	5.9074E00
737.14	5.7814E00
737.32	6.0356E00
737.50	6.0862E00
737.68	6.0138E00
737.87	6.0759E00
738.05	6.1970E00
738.23	5.8934E00
738.41	6.0188E00
738.59	6.0725E00
738.77	6.1309E00
738.95	6.2611E00
739.14	6.0207E00
739.32	6.0549E00
739.50	6.3089E00
739.68	6.0586E00
739.86	6.1472E00
740.04	6.1052E00
740.23	5.9621E00
740.41	6.2013E00
740.59	6.2378E00
740.77	6.3249E00
740.95	6.2234E00
741.13	6.1619E00
741.31	6.1137E00
741.50	6.1617E00
741.68	6.1205E00
741.86	6.0916E00
742.04	6.2689E00
742.22	6.3327E00
742.40	6.2515E00
742.58	6.3133E00
742.76	6.3410E00
742.95	6.0630E00
743.13	6.3936E00
743.31	6.3148E00
743.49	6.2680E00
743.67	6.4407E00
743.85	6.4028E00
744.03	6.2941E00
744.21	6.3885E00
744.39	6.2145E00
744.58	6.4322E00
744.76	6.4225E00
744.94	6.5362E00
745.12	6.4117E00
745.30	6.3013E00
745.48	6.4426E00
745.66	6.5029E00
745.84	6.2677E00
746.02	6.2762E00
746.20	6.3859E00
746.38	6.4548E00
746.57	6.6072E00
746.75	6.1881E00
746.93	6.4618E00
747.11	6.2500E00
747.29	6.3589E00
747.47	6.4759E00
747.65	6.4111E00
747.83	6.1301E00
748.01	6.3200E00
748.19	6.3704E00
748.37	6.3491E00
748.55	6.3231E00
748.73	6.2342E00
748.92	6.3527E00
749.10	6.2237E00
749.28	6.4092E00
749.46	6.2362E00
749.64	6.1484E00
749.82	6.2113E00
750.00	6.3509E00
750.18	6.2881E00
750.36	6.0894E00
750.54	6.3061E00
750.72	6.4063E00
750.90	6.3862E00
751.08	6.2642E00
751.26	6.3945E00
751.44	6.3778E00
751.62	6.4916E00
751.80	6.3265E00
751.98	6.3956E00
752.16	6.4415E00
752.34	6.4525E00
752.52	6.5011E00
752.71	6.2088E00
752.89	6.1621E00
753.07	6.4756E00
753.25	6.1609E00
753.43	6.4947E00
753.61	6.2732E00
753.79	6.5158E00
753.97	6.4409E00
754.15	6.4836E00
754.33	6.5451E00
754.51	6.5627E00
754.69	6.5807E00
754.87	6.4792E00
755.05	6.5014E00
755.23	6.6460E00
755.41	6.7416E00
755.59	5.9727E00
755.77	6.4536E00
755.95	6.3989E00
756.13	6.1488E00
756.31	6.4292E00
756.49	6.4108E00
756.67	6.2007E00
756.85	6.1358E00
757.03	6.0067E00
757.21	5.9717E00
757.39	5.9274E00
757.57	5.8931E00
757.75	5.5361E00
757.93	5.2002E00
758.11	5.1916E00
758.29	5.0437E00
758.47	4.8143E00
758.65	4.7617E00
758.83	4.8981E00
759.01	4.6318E00
759.18	4.4196E00
759.36	3.9978E00
759.54	4.1582E00
759.72	3.8692E00
759.90	3.9481E00
760.08	3.8929E00
760.26	3.8557E00
760.44	3.6065E00
760.62	3.4030E00
760.80	3.3960E00
760.98	3.7189E00
761.16	3.7045E00
761.34	3.5462E00
761.52	3.7954E00
761.70	3.5137E00
761.88	3.5848E00
762.06	3.6313E00
762.24	3.5922E00
762.42	3.6503E00
762.60	3.6766E00
762.78	3.7993E00
762.95	3.7535E00
763.13	3.9470E00
763.31	4.0645E00
763.49	4.0032E00
763.67	4.1309E00
763.85	3.9847E00
764.03	4.4168E00
764.21	4.2732E00
764.39	4.5164E00
764.57	4.7826E00
764.75	4.7509E00
764.93	5.1510E00
765.11	4.9181E00
765.28	5.2430E00
765.46	5.2491E00
765.64	5.2524E00
765.82	5.4539E00
766.00	5.6262E00
766.18	5.7316E00
766.36	5.7898E00
766.54	5.8119E00
766.72	5.9375E00
766.90	6.3015E00
767.07	5.9168E00
767.25	6.1674E00
767.43	6.2586E00
767.61	6.4649E00
767.79	6.5000E00
767.97	6.4510E00
768.15	6.3704E00
768.33	6.2753E00
768.51	6.5413E00
768.68	6.5693E00
768.86	6.4325E00
769.04	6.5109E00
769.22	6.8953E00
769.40	6.8523E00
769.58	6.6712E00
769.76	7.0249E00
769.94	6.9562E00
770.11	6.7175E00
770.29	6.8454E00
770.47	6.8133E00
770.65	6.8569E00
770.83	6.8410E00
771.01	6.9841E00
771.19	6.9693E00
771.36	6.7498E00
771.54	6.9751E00
771.72	6.8472E00
771.90	6.6599E00
772.08	6.8922E00
772.26	7.0384E00
772.44	6.6407E00
772.61	6.8737E00
772.79	6.6264E00
772.97	6.9253E00
773.15	7.0635E00
773.33	6.6972E00
773.51	6.9397E00
773.68	6.7085E00
773.86	6.6116E00
774.04	6.7474E00
774.22	6.5595E00
774.40	6.6968E00
774.58	6.7965E00
774.75	6.7574E00
774.93	6.4884E00
775.11	6.8517E00
775.29	6.6143E00
775.47	6.4154E00
775.64	6.7588E00
775.82	6.6284E00
776.00	6.7116E00
776.18	6.5105E00
776.36	6.5354E00
776.53	6.8936E00
776.71	6.5268E00
776.89	6.4778E00
777.07	6.6384E00
777.25	6.5813E00
777.42	6.5654E00
777.60	6.4107E00
777.78	6.6265E00
777.96	6.5151E00
778.14	6.6919E00
778.31	6.5382E00
778.49	6.2183E00
778.67	6.2851E00
778.85	6.4010E00
779.03	6.5356E00
779.20	6.5016E00
779.38	6.3971E00
779.56	6.1686E00
779.74	6.4841E00
779.91	6.3048E00
780.09	6.2458E00
780.27	6.0488E00
780.45	6.1814E00
780.62	6.3130E00
780.80	6.3592E00
780.98	6.0411E00
781.16	5.8778E00
781.34	6.2161E00
781.51	6.2475E00
781.69	6.2774E00
781.87	6.1728E00
782.05	6.0779E00
782.22	6.1226E00
782.40	6.0145E00
782.58	6.1117E00
782.76	5.8969E00
782.93	6.1628E00
783.11	6.3147E00
783.29	5.9780E00
783.47	5.9790E00
783.64	6.0574E00
783.82	5.8822E00
784.00	5.6367E00
784.17	5.8492E00
784.35	5.8918E00
784.53	5.7953E00
784.71	5.9282E00
784.88	5.7771E00
785.06	6.0542E00
785.24	5.7742E00
785.42	5.9449E00
785.59	5.8468E00
785.77	5.5102E00
785.95	5.6668E00
786.12	5.5007E00
786.30	5.7082E00
786.48	5.6767E00
786.65	5.5715E00
786.83	5.6508E00
787.01	5.6912E00
787.19	5.5800E00
787.36	5.6497E00
787.54	5.5695E00
787.72	5.6578E00
787.89	5.6050E00
788.07	5.5496E00
788.25	5.4923E00
788.42	5.4257E00
788.60	5.6714E00
788.78	5.4513E00
788.96	5.5031E00
789.13	5.3130E00
789.31	5.3553E00
789.49	5.3462E00
789.66	5.5155E00
789.84	5.2520E00
790.02	4.9736E00
790.19	5.1828E00
790.37	5.2929E00
790.55	5.2011E00
790.72	5.2241E00
790.90	5.4774E00
791.08	5.1397E00
791.25	5.1805E00
791.43	5.2008E00
791.61	5.0924E00
791.78	5.0815E00
791.96	4.8499E00
792.14	5.0837E00
792.31	5.2150E00
792.49	4.8048E00
792.67	5.2815E00
792.84	4.9526E00
793.02	4.9824E00
793.19	4.9005E00
793.37	5.1500E00
793.55	5.1611E00
793.72	5.0805E00
793.90	4.7901E00
794.08	4.9699E00
794.25	5.0054E00
794.43	4.8051E00
794.61	4.9426E00
794.78	4.9273E00
794.96	4.6805E00
795.13	4.9335E00
795.31	4.9773E00
795.49	4.6904E00
795.66	4.8913E00
795.84	4.7942E00
796.01	4.8584E00
796.19	4.7293E00
796.37	4.9498E00
796.54	4.8438E00
796.72	4.9215E00
796.90	4.7766E00
797.07	4.5962E00
797.25	4.7996E00
797.42	4.9588E00
797.60	4.8985E00
797.78	4.7718E00
797.95	4.5774E00
798.13	4.4983E00
798.30	4.7602E00
798.48	4.6965E00
798.66	4.8765E00
798.83	4.4747E00
799.01	4.6819E00
799.18	4.5220E00
799.36	4.7783E00
799.53	4.2695E00
799.71	4.7048E00
799.89	4.4671E00
800.06	4.4881E00
800.24	4.5110E00
800.41	4.2500E00
800.59	4.6814E00
800.76	4.3183E00
800.94	4.3393E00
801.12	4.5667E00
801.29	4.5048E00
801.47	4.6081E00
801.64	4.3155E00
801.82	4.5787E00
801.99	4.5641E00
802.17	4.5411E00
802.34	4.4704E00
802.52	4.4634E00
802.70	4.5930E00
802.87	4.3133E00
803.05	4.2049E00
803.22	4.6717E00
803.40	4.3667E00
803.57	4.3832E00
803.75	4.6456E00
803.92	4.4637E00
804.10	4.1673E00
804.27	4.2133E00
804.45	4.3937E00
804.63	4.2945E00
804.80	4.1928E00
804.98	4.4131E00
805.15	4.0968E00
805.33	4.6068E00
805.50	4.6409E00
805.68	4.5525E00
805.85	4.6773E00
806.03	4.4621E00
806.20	4.5033E00
806.38	3.9894E00
806.55	4.1283E00
806.73	4.6418E00
806.90	4.3534E00
807.08	4.2834E00
807.25	4.0380E00
807.43	4.3202E00
807.60	4.4265E00
807.78	4.1048E00
807.95	3.8487E00
808.13	3.9961E00
808.30	3.9131E00
808.48	4.2513E00
808.65	4.1018E00
808.83	4.4014E00
809.00	4.1137E00
809.18	4.4081E00
809.35	3.9086E00
809.53	4.2360E00
809.70	4.0818E00
809.88	4.1290E00
810.05	4.0523E00
810.23	4.1936E00
810.40	4.0411E00
810.57	4.0125E00
810.75	3.7743E00
810.92	3.7580E00
811.10	3.8164E00
811.27	3.6000E00
811.45	3.7498E00
811.62	3.6428E00
811.80	3.4971E00
811.97	3.7383E00
812.15	3.7272E00
812.32	3.7319E00
812.50	3.2976E00
812.67	3.9704E00
812.84	3.3878E00
813.02	3.6434E00
813.19	3.6001E00
813.37	3.6131E00
813.54	3.3519E00
813.72	3.4750E00
813.89	3.2509E00
814.07	3.4558E00
814.24	3.5031E00
814.41	3.5592E00
814.59	3.2036E00
814.76	3.1598E00
814.94	3.3688E00
815.11	3.4674E00
815.29	2.8343E00
815.46	2.9518E00
815.63	3.0818E00
815.81	3.1215E00
815.98	2.6605E00
816.16	2.7199E00
816.33	3.1278E00
816.50	3.2654E00
816.68	3.0514E00
816.85	2.8838E00
817.03	3.0982E00
817.20	2.9834E00
817.37	3.1456E00
817.55	2.9271E00
817.72	3.0738E00
817.90	2.7443E00
818.07	3.0196E00
818.24	2.6708E00
818.42	2.7988E00
818.59	2.7739E00
818.77	2.7819E00
818.94	3.0716E00
819.11	2.6963E00
819.29	3.1199E00
819.46	3.0699E00
819.64	2.6437E00
819.81	3.2833E00
819.98	3.1821E00
820.16	2.8558E00
820.33	3.1526E00
820.50	3.1058E00
820.68	2.8573E00
820.85	3.1102E00
821.02	3.0452E00
821.20	2.8125E00
821.37	3.0755E00
821.55	2.6787E00
821.72	2.9616E00
821.89	3.0114E00
822.07	3.2567E00
822.24	3.2361E00
822.41	2.7079E00
822.59	3.4041E00
822.76	3.4085E00
822.93	2.9809E00
823.11	3.0834E00
823.28	3.2551E00
823.45	3.0244E00
823.63	3.0713E00
823.80	3.3105E00
823.97	2.6642E00
824.15	3.3311E00
824.32	3.0515E00
824.49	3.5488E00
824.67	3.0850E00
824.84	3.2850E00
825.01	3.2735E00
825.19	3.2801E00
825.36	3.2484E00
825.53	3.4818E00
825.71	3.3818E00
825.88	3.4408E00
826.05	3.0586E00
826.23	3.3653E00
826.40	3.1466E00
826.57	3.2011E00
826.75	3.0732E00
826.92	2.8520E00
827.09	2.8678E00
827.26	3.5026E00
827.44	3.2018E00
827.61	3.4862E00
827.78	3.2657E00
827.96	2.7856E00
828.13	3.4554E00
828.30	3.2211E00
828.48	3.0849E00
828.65	3.0122E00
828.82	3.0609E00
828.99	3.0840E00
829.17	3.1669E00
829.34	2.6073E00
829.51	3.0517E00
829.68	3.4106E00
829.86	3.3101E00
830.03	3.0977E00
830.20	3.2363E00
830.38	3.1317E00
830.55	2.8768E00
830.72	3.2181E00
830.89	2.8023E00
831.07	2.7967E00
831.24	2.8143E00
831.41	2.9312E00
831.58	3.2109E00
831.76	3.4454E00
831.93	3.2261E00
832.10	3.2116E00
832.27	2.7565E00
832.45	2.7587E00
832.62	3.1516E00
832.79	2.9039E00
832.96	3.1928E00
833.14	2.7241E00
833.31	3.3509E00
833.48	3.0880E00
833.65	2.8520E00
833.83	3.3437E00
834.00	3.4053E00
834.17	3.0493E00
834.34	3.2520E00
834.51	3.0518E00
834.69	2.8821E00
834.86	3.3301E00
835.03	3.0366E00
835.20	3.3086E00
835.38	3.0673E00
835.55	3.1420E00
835.72	2.9746E00
835.89	3.6171E00
836.06	2.9524E00
836.24	2.9364E00
836.41	2.7383E00
836.58	3.2875E00
836.75	3.2414E00
836.92	3.1133E00
837.10	2.8114E00
837.27	3.0108E00
837.44	2.8121E00
837.61	3.3736E00
837.78	2.9035E00
837.96	3.1594E00
838.13	2.9951E00
838.30	3.2937E00
838.47	3.1451E00
838.64	3.0489E00
838.82	3.0041E00
838.99	3.4930E00
839.16	2.9363E00
839.33	2.9985E00
839.50	3.4230E00
839.67	3.1769E00
839.85	2.6669E00
840.02	3.1074E00
840.19	2.8890E00
840.36	3.3233E00
840.53	2.7627E00
840.70	2.7063E00
840.88	3.2402E00
841.05	3.3891E00
841.22	3.1048E00
841.39	3.0876E00
841.56	3.1353E00
841.73	3.0357E00
841.91	3.2451E00
842.08	3.2008E00
842.25	3.1128E00
842.42	3.2172E00
842.59	3.0916E00
842.76	3.5853E00
842.93	3.1322E00
843.11	3.2607E00
843.28	3.0919E00
843.45	3.1268E00
843.62	2.7802E00
843.79	2.8816E00
843.96	3.4042E00
844.13	3.1315E00
844.30	3.1061E00
844.48	3.3905E00
844.65	2.7814E00
844.82	2.5705E00
844.99	2.9277E00
845.16	2.8812E00
845.33	2.9735E00
845.50	2.9626E00
845.67	2.6354E00
845.84	2.9813E00
846.02	2.7798E00
846.19	2.9935E00
846.36	2.9918E00
846.53	3.4105E00
846.70	3.0694E00
846.87	2.5959E00
847.04	3.1411E00
847.21	3.1212E00
847.38	3.1357E00
847.55	3.1252E00
847.73	2.8067E00
847.90	2.9739E00
848.07	2.6911E00
848.24	2.7894E00
848.41	2.6719E00
848.58	3.6432E00
848.75	2.9197E00
848.92	3.4480E00
849.09	3.0052E00
849.26	2.8479E00
849.43	2.6505E00
849.60	2.9027E00
849.77	3.1858E00
849.94	2.0508E00
850.12	3.2893E00
850.29	3.0555E00
850.46	2.8933E00
850.63	2.7829E00
850.80	3.0365E00
850.97	3.0096E00
851.14	2.5986E00
851.31	2.2895E00
851.48	2.7227E00
851.65	2.8362E00
851.82	3.1963E00
851.99	3.0539E00
852.16	2.2860E00
852.33	2.8848E00
852.50	2.6777E00
852.67	2.8109E00
852.84	2.9482E00
853.01	2.7573E00
853.18	2.9845E00
853.35	2.5506E00
853.52	3.3081E00
853.69	2.7807E00
853.86	2.4181E00
854.03	2.3690E00
854.21	2.9081E00
854.38	2.7576E00
854.55	3.0006E00
854.72	3.0782E00
854.89	2.4995E00
855.06	2.1152E00
855.23	2.7552E00
855.40	3.1855E00
855.57	2.4725E00
855.74	2.6731E00
855.91	2.8292E00
856.08	2.4663E00
856.25	2.8170E00
856.42	2.7216E00
856.59	2.7037E00
856.76	2.8912E00
856.93	2.8560E00
857.10	2.8204E00
857.27	3.3362E00
857.44	2.9968E00
857.61	2.9748E00
857.77	2.5944E00
857.94	2.6512E00
858.11	2.5706E00
858.28	3.2559E00
858.45	2.5359E00
858.62	2.9162E00
858.79	2.6699E00
858.96	2.7122E00
859.13	2.7225E00
859.30	3.0248E00
859.47	2.5944E00
859.64	2.1772E00
859.81	3.0063E00
859.98	3.0077E00
860.15	2.7140E00
860.32	2.4935E00
860.49	3.4312E00
860.66	2.8181E00
860.83	2.9258E00
861.00	2.8064E00
861.17	2.9178E00
861.34	2.9864E00
861.51	2.1767E00
861.68	3.0208E00
861.84	2.8614E00
862.01	2.5259E00
862.18	2.6729E00
862.35	2.9341E00
862.52	2.9196E00
862.69	2.6850E00
862.86	2.8517E00
863.03	3.0246E00
863.20	2.8516E00
863.37	2.9375E00
863.54	2.4856E00
863.71	2.4852E00
863.88	2.7382E00
864.05	2.6827E00
864.21	2.9879E00
864.38	2.4174E00
864.55	2.2999E00
864.72	3.0999E00
864.89	2.6574E00
865.06	3.0193E00
865.23	2.5584E00
865.40	2.2529E00
865.57	3.0201E00
865.74	2.7363E00
865.90	2.8243E00
866.07	2.7778E00
866.24	2.2689E00
866.41	2.1846E00
866.58	2.3572E00
866.75	2.4380E00
866.92	2.5114E00
867.09	2.5398E00
867.26	2.5933E00
867.42	2.2050E00
867.59	1.9421E00
867.76	2.6785E00
867.93	2.3609E00
868.10	2.5195E00
868.27	1.8210E00
868.44	2.5301E00
868.60	2.7004E00
868.77	2.6009E00
868.94	2.4136E00
869.11	2.3590E00
869.28	2.7218E00
869.45	1.8962E00
869.62	2.6037E00
869.78	2.3765E00
869.95	1.9614E00
870.12	2.2233E00
870.29	2.4925E00
870.46	2.5454E00
870.63	2.1488E00
870.80	1.7924E00
870.96	2.1199E00
871.13	2.0354E00
871.30	2.4590E00
871.47	2.5193E00
871.64	2.5147E00
871.81	1.5193E00
871.97	2.7882E00
872.14	1.8832E00
872.31	1.7488E00
872.48	2.0937E00
872.65	2.5289E00
872.81	2.1907E00
872.98	2.7294E00
873.15	2.5133E00
873.32	2.5113E00
873.49	2.2085E00
873.66	2.5227E00
873.82	2.2841E00
873.99	2.0529E00
874.16	2.4528E00
874.33	2.2160E00
874.50	2.6074E00
874.66	2.3108E00
874.83	2.4193E00
875.00	2.3297E00
875.17	1.6734E00
875.34	2.6226E00
875.50	2.1881E00
875.67	2.0463E00
875.84	2.1965E00
876.01	2.0329E00
876.17	1.8790E00
876.34	1.8710E00
876.51	2.7047E00
876.68	2.4829E00
876.85	2.3294E00
877.01	2.5698E00
877.18	2.0737E00
877.35	2.2193E00
877.52	2.1628E00
877.68	2.4275E00
877.85	2.0459E00
878.02	2.2212E00
878.19	2.0401E00
878.35	2.1855E00
878.52	2.0986E00
878.69	2.1992E00
878.86	1.7207E00
879.02	1.9729E00
879.19	1.6024E00
879.36	1.8465E00
879.53	1.3186E00
879.69	1.7956E00
879.86	2.3194E00
880.03	2.2468E00
880.20	1.7871E00
880.36	2.3680E00
880.53	1.7047E00
880.70	2.4366E00
880.87	1.9806E00
881.03	2.0372E00
881.20	1.4550E00
881.37	1.9372E00
881.54	2.1153E00
881.70	2.4433E00
881.87	1.8866E00
882.04	1.9710E00
882.20	2.0382E00
882.37	1.6341E00
882.54	2.2660E00
882.71	2.2023E00
882.87	2.5598E00
883.04	2.0180E00
883.21	2.0523E00
883.37	1.8835E00
883.54	2.0706E00
883.71	1.9293E00
883.87	1.7066E00
884.04	2.4453E00
884.21	1.9319E00
884.38	1.7279E00
884.54	2.5049E00
884.71	2.5048E00
884.88	1.9249E00
885.04	2.1035E00
885.21	1.8010E00
885.38	1.7676E00
885.54	2.6098E00
885.71	1.7945E00
885.88	2.0469E00
886.04	1.9478E00
886.21	1.9792E00
886.38	1.7417E00
886.54	1.8100E00
886.71	1.4902E00
886.88	2.2419E00
887.04	1.2747E00
887.21	1.6048E00
887.38	2.0173E00
887.54	1.7987E00
887.71	2.1058E00
887.88	1.4190E00
888.04	1.7512E00
888.21	1.5714E00
888.38	1.8556E00
888.54	1.9149E00
888.71	1.3494E00
888.87	7.0917E-01
889.04	7.0917E-01
>>>>>End Processed Spectral Data<<<<<
