SpectraSuite Data File
++++++++++++++++++++++++++++++++++++
Date: Wed Jul 25 10:39:54 HST 2007
User: guest
Dark Spectrum Present: Yes
Reference Spectrum Present: No
Number of Sampled Component Spectra: 1
Spectrometers: USB4E01242
Integration Time (usec): 100000 (USB4E01242)
Spectra Averaged: 1 (USB4E01242)
Boxcar Smoothing: 10 (USB4E01242)
Correct for Electrical Dark: No (USB4E01242)
Strobe/Lamp Enabled: No (USB4E01242)
Correct for Detector Non-linearity: No (USB4E01242)
Correct for Stray Light: No (USB4E01242)
Number of Pixels in Processed Spectrum: 3648
>>>>>Begin Processed Spectral Data<<<<<
177.33	-0.0000E00
177.55	-0.0000E00
177.77	-0.0000E00
177.99	-0.0000E00
178.21	-0.0000E00
178.43	-0.0000E00
178.64	-0.0000E00
178.86	-0.0000E00
179.08	-0.0000E00
179.30	-0.0000E00
179.52	-0.0000E00
179.74	-0.0000E00
179.96	-0.0000E00
180.18	-0.0000E00
180.39	-0.0000E00
180.61	-0.0000E00
180.83	-0.0000E00
181.05	-0.0000E00
181.27	-0.0000E00
181.49	-0.0000E00
181.71	-0.0000E00
181.92	-0.0000E00
182.14	-0.0000E00
182.36	-0.0000E00
182.58	-0.0000E00
182.80	-0.0000E00
183.02	-0.0000E00
183.23	-0.0000E00
183.45	-0.0000E00
183.67	-0.0000E00
183.89	-0.0000E00
184.11	0.0000E00
184.33	-0.0000E00
184.55	-0.0000E00
184.76	-0.0000E00
184.98	-0.0000E00
185.20	-0.0000E00
185.42	-0.0000E00
185.64	-0.0000E00
185.86	-0.0000E00
186.07	-0.0000E00
186.29	-0.0000E00
186.51	-0.0000E00
186.73	-0.0000E00
186.95	-0.0000E00
187.17	-0.0000E00
187.38	-0.0000E00
187.60	-0.0000E00
187.82	-0.0000E00
188.04	-0.0000E00
188.26	-0.0000E00
188.47	-0.0000E00
188.69	-0.0000E00
188.91	-0.0000E00
189.13	-0.0000E00
189.35	-0.0000E00
189.57	-0.0000E00
189.78	-0.0000E00
190.00	-0.0000E00
190.22	-0.0000E00
190.44	-0.0000E00
190.66	-0.0000E00
190.87	-0.0000E00
191.09	-0.0000E00
191.31	-0.0000E00
191.53	-0.0000E00
191.75	-0.0000E00
191.97	-0.0000E00
192.18	-0.0000E00
192.40	-0.0000E00
192.62	-0.0000E00
192.84	-0.0000E00
193.06	-0.0000E00
193.27	-0.0000E00
193.49	-0.0000E00
193.71	-0.0000E00
193.93	-0.0000E00
194.15	-0.0000E00
194.36	-0.0000E00
194.58	-0.0000E00
194.80	-0.0000E00
195.02	-0.0000E00
195.23	-0.0000E00
195.45	-0.0000E00
195.67	-0.0000E00
195.89	-0.0000E00
196.11	-0.0000E00
196.32	-0.0000E00
196.54	-0.0000E00
196.76	-0.0000E00
196.98	-0.0000E00
197.20	-0.0000E00
197.41	-0.0000E00
197.63	-0.0000E00
197.85	-0.0000E00
198.07	-0.0000E00
198.28	-0.0000E00
198.50	-0.0000E00
198.72	-0.0000E00
198.94	-0.0000E00
199.16	-0.0000E00
199.37	-0.0000E00
199.59	-0.0000E00
199.81	-0.0000E00
200.03	-0.0000E00
200.24	-0.0000E00
200.46	-0.0000E00
200.68	-0.0000E00
200.90	-0.0000E00
201.11	-0.0000E00
201.33	-0.0000E00
201.55	-0.0000E00
201.77	-0.0000E00
201.98	-0.0000E00
202.20	-0.0000E00
202.42	-0.0000E00
202.64	-0.0000E00
202.86	-0.0000E00
203.07	-0.0000E00
203.29	-0.0000E00
203.51	-0.0000E00
203.73	-0.0000E00
203.94	-0.0000E00
204.16	-0.0000E00
204.38	-0.0000E00
204.60	-0.0000E00
204.81	-0.0000E00
205.03	-0.0000E00
205.25	-0.0000E00
205.46	-0.0000E00
205.68	-0.0000E00
205.90	-0.0000E00
206.12	-0.0000E00
206.33	-0.0000E00
206.55	-0.0000E00
206.77	-0.0000E00
206.99	-0.0000E00
207.20	-0.0000E00
207.42	-0.0000E00
207.64	-0.0000E00
207.86	-0.0000E00
208.07	-0.0000E00
208.29	-0.0000E00
208.51	-0.0000E00
208.72	-0.0000E00
208.94	-0.0000E00
209.16	-0.0000E00
209.38	-0.0000E00
209.59	-0.0000E00
209.81	-0.0000E00
210.03	-0.0000E00
210.25	-0.0000E00
210.46	-0.0000E00
210.68	-0.0000E00
210.90	-0.0000E00
211.11	-0.0000E00
211.33	-0.0000E00
211.55	-0.0000E00
211.77	-0.0000E00
211.98	-0.0000E00
212.20	-0.0000E00
212.42	-0.0000E00
212.63	-0.0000E00
212.85	-0.0000E00
213.07	-0.0000E00
213.29	-0.0000E00
213.50	-0.0000E00
213.72	-0.0000E00
213.94	-0.0000E00
214.15	-0.0000E00
214.37	-0.0000E00
214.59	-0.0000E00
214.80	-0.0000E00
215.02	-0.0000E00
215.24	-0.0000E00
215.45	-0.0000E00
215.67	-0.0000E00
215.89	-0.0000E00
216.11	-0.0000E00
216.32	-0.0000E00
216.54	-0.0000E00
216.76	-0.0000E00
216.97	-0.0000E00
217.19	-0.0000E00
217.41	-0.0000E00
217.62	-0.0000E00
217.84	-0.0000E00
218.06	-0.0000E00
218.27	-0.0000E00
218.49	-0.0000E00
218.71	-0.0000E00
218.92	-0.0000E00
219.14	-0.0000E00
219.36	-0.0000E00
219.57	-0.0000E00
219.79	-0.0000E00
220.01	-0.0000E00
220.22	-0.0000E00
220.44	-0.0000E00
220.66	-0.0000E00
220.88	-0.0000E00
221.09	-0.0000E00
221.31	-0.0000E00
221.53	-0.0000E00
221.74	-0.0000E00
221.96	-0.0000E00
222.17	-0.0000E00
222.39	-0.0000E00
222.61	-0.0000E00
222.82	-0.0000E00
223.04	-0.0000E00
223.26	-0.0000E00
223.47	-0.0000E00
223.69	-0.0000E00
223.91	-0.0000E00
224.12	-0.0000E00
224.34	-0.0000E00
224.56	-0.0000E00
224.77	-0.0000E00
224.99	-0.0000E00
225.21	-0.0000E00
225.42	-0.0000E00
225.64	-0.0000E00
225.86	-0.0000E00
226.07	-0.0000E00
226.29	-0.0000E00
226.50	-0.0000E00
226.72	-0.0000E00
226.94	-0.0000E00
227.15	-0.0000E00
227.37	-0.0000E00
227.59	-0.0000E00
227.80	-0.0000E00
228.02	-0.0000E00
228.24	-0.0000E00
228.45	-0.0000E00
228.67	-0.0000E00
228.88	-0.0000E00
229.10	-0.0000E00
229.32	-0.0000E00
229.53	-0.0000E00
229.75	-0.0000E00
229.97	-0.0000E00
230.18	-0.0000E00
230.40	-0.0000E00
230.61	-0.0000E00
230.83	-0.0000E00
231.05	-0.0000E00
231.26	-0.0000E00
231.48	-0.0000E00
231.70	-0.0000E00
231.91	-0.0000E00
232.13	-0.0000E00
232.34	-0.0000E00
232.56	-0.0000E00
232.78	-0.0000E00
232.99	-0.0000E00
233.21	-0.0000E00
233.42	-0.0000E00
233.64	-0.0000E00
233.86	-0.0000E00
234.07	-0.0000E00
234.29	-0.0000E00
234.50	-0.0000E00
234.72	-0.0000E00
234.94	-0.0000E00
235.15	-0.0000E00
235.37	-0.0000E00
235.58	-0.0000E00
235.80	-0.0000E00
236.02	0.0000E00
236.23	-0.0000E00
236.45	-0.0000E00
236.66	-0.0000E00
236.88	-0.0000E00
237.10	-0.0000E00
237.31	-0.0000E00
237.53	-0.0000E00
237.74	-0.0000E00
237.96	-0.0000E00
238.17	-0.0000E00
238.39	-0.0000E00
238.61	-0.0000E00
238.82	-0.0000E00
239.04	-0.0000E00
239.25	-0.0000E00
239.47	-0.0000E00
239.69	-0.0000E00
239.90	-0.0000E00
240.12	-0.0000E00
240.33	-0.0000E00
240.55	-0.0000E00
240.76	-0.0000E00
240.98	-0.0000E00
241.20	-0.0000E00
241.41	-0.0000E00
241.63	-0.0000E00
241.84	-0.0000E00
242.06	-0.0000E00
242.27	-0.0000E00
242.49	-0.0000E00
242.70	-0.0000E00
242.92	-0.0000E00
243.14	-0.0000E00
243.35	-0.0000E00
243.57	-0.0000E00
243.78	-0.0000E00
244.00	-0.0000E00
244.21	-0.0000E00
244.43	-0.0000E00
244.64	-0.0000E00
244.86	-0.0000E00
245.08	-0.0000E00
245.29	-0.0000E00
245.51	-0.0000E00
245.72	-0.0000E00
245.94	-0.0000E00
246.15	-0.0000E00
246.37	-0.0000E00
246.58	-0.0000E00
246.80	-0.0000E00
247.01	-0.0000E00
247.23	-0.0000E00
247.45	-0.0000E00
247.66	-0.0000E00
247.88	-0.0000E00
248.09	-0.0000E00
248.31	-0.0000E00
248.52	-0.0000E00
248.74	-0.0000E00
248.95	-0.0000E00
249.17	-0.0000E00
249.38	-0.0000E00
249.60	-0.0000E00
249.81	-0.0000E00
250.03	-0.0000E00
250.24	-0.0000E00
250.46	-0.0000E00
250.67	-0.0000E00
250.89	-0.0000E00
251.10	-0.0000E00
251.32	-0.0000E00
251.53	-0.0000E00
251.75	-0.0000E00
251.97	-0.0000E00
252.18	-0.0000E00
252.40	-0.0000E00
252.61	-0.0000E00
252.83	-0.0000E00
253.04	-0.0000E00
253.26	-0.0000E00
253.47	-0.0000E00
253.69	-0.0000E00
253.90	-0.0000E00
254.12	-0.0000E00
254.33	-0.0000E00
254.55	-0.0000E00
254.76	-0.0000E00
254.98	0.0000E00
255.19	-0.0000E00
255.41	-0.0000E00
255.62	-0.0000E00
255.84	-0.0000E00
256.05	-0.0000E00
256.27	-0.0000E00
256.48	-0.0000E00
256.70	-0.0000E00
256.91	-0.0000E00
257.13	-0.0000E00
257.34	-0.0000E00
257.55	-0.0000E00
257.77	-0.0000E00
257.98	-0.0000E00
258.20	-0.0000E00
258.41	-0.0000E00
258.63	-0.0000E00
258.84	-0.0000E00
259.06	-0.0000E00
259.27	-0.0000E00
259.49	-0.0000E00
259.70	0.0000E00
259.92	-0.0000E00
260.13	-0.0000E00
260.35	-0.0000E00
260.56	-0.0000E00
260.78	-0.0000E00
260.99	-0.0000E00
261.21	-0.0000E00
261.42	-0.0000E00
261.63	-0.0000E00
261.85	-0.0000E00
262.06	-0.0000E00
262.28	-0.0000E00
262.49	-0.0000E00
262.71	-0.0000E00
262.92	-0.0000E00
263.14	-0.0000E00
263.35	-0.0000E00
263.57	-0.0000E00
263.78	-0.0000E00
264.00	-0.0000E00
264.21	-0.0000E00
264.42	-0.0000E00
264.64	-0.0000E00
264.85	-0.0000E00
265.07	-0.0000E00
265.28	-0.0000E00
265.50	-0.0000E00
265.71	-0.0000E00
265.93	-0.0000E00
266.14	-0.0000E00
266.35	0.0000E00
266.57	-0.0000E00
266.78	-0.0000E00
267.00	-0.0000E00
267.21	-0.0000E00
267.43	-0.0000E00
267.64	-0.0000E00
267.85	-0.0000E00
268.07	-0.0000E00
268.28	-0.0000E00
268.50	-0.0000E00
268.71	-0.0000E00
268.93	-0.0000E00
269.14	-0.0000E00
269.35	-0.0000E00
269.57	-0.0000E00
269.78	-0.0000E00
270.00	-0.0000E00
270.21	-0.0000E00
270.43	-0.0000E00
270.64	-0.0000E00
270.85	-0.0000E00
271.07	-0.0000E00
271.28	-0.0000E00
271.50	-0.0000E00
271.71	-0.0000E00
271.92	-0.0000E00
272.14	-0.0000E00
272.35	-0.0000E00
272.57	-0.0000E00
272.78	-0.0000E00
272.99	-0.0000E00
273.21	-0.0000E00
273.42	-0.0000E00
273.64	-0.0000E00
273.85	-0.0000E00
274.07	-0.0000E00
274.28	-0.0000E00
274.49	-0.0000E00
274.71	-0.0000E00
274.92	-0.0000E00
275.13	-0.0000E00
275.35	-0.0000E00
275.56	-0.0000E00
275.78	-0.0000E00
275.99	-0.0000E00
276.20	-0.0000E00
276.42	-0.0000E00
276.63	-0.0000E00
276.85	-0.0000E00
277.06	-0.0000E00
277.27	-0.0000E00
277.49	-0.0000E00
277.70	-0.0000E00
277.92	-0.0000E00
278.13	-0.0000E00
278.34	-0.0000E00
278.56	-0.0000E00
278.77	-0.0000E00
278.98	-0.0000E00
279.20	-0.0000E00
279.41	-0.0000E00
279.63	-0.0000E00
279.84	-0.0000E00
280.05	-0.0000E00
280.27	-0.0000E00
280.48	-0.0000E00
280.69	-0.0000E00
280.91	-0.0000E00
281.12	-0.0000E00
281.33	-0.0000E00
281.55	-0.0000E00
281.76	-0.0000E00
281.98	-0.0000E00
282.19	-0.0000E00
282.40	-0.0000E00
282.62	-0.0000E00
282.83	-0.0000E00
283.04	-0.0000E00
283.26	-0.0000E00
283.47	-0.0000E00
283.68	-0.0000E00
283.90	-0.0000E00
284.11	-0.0000E00
284.32	-0.0000E00
284.54	-0.0000E00
284.75	-0.0000E00
284.96	-0.0000E00
285.18	-0.0000E00
285.39	-0.0000E00
285.60	-0.0000E00
285.82	-0.0000E00
286.03	-0.0000E00
286.24	-0.0000E00
286.46	-0.0000E00
286.67	-0.0000E00
286.88	-0.0000E00
287.10	-0.0000E00
287.31	-0.0000E00
287.52	-0.0000E00
287.74	-0.0000E00
287.95	-0.0000E00
288.16	-0.0000E00
288.38	-0.0000E00
288.59	-0.0000E00
288.80	-0.0000E00
289.02	-0.0000E00
289.23	-0.0000E00
289.44	-0.0000E00
289.66	-0.0000E00
289.87	-0.0000E00
290.08	-0.0000E00
290.30	-0.0000E00
290.51	-0.0000E00
290.72	-0.0000E00
290.94	-0.0000E00
291.15	-0.0000E00
291.36	-0.0000E00
291.57	-0.0000E00
291.79	-0.0000E00
292.00	-0.0000E00
292.21	-0.0000E00
292.43	-0.0000E00
292.64	-0.0000E00
292.85	-0.0000E00
293.07	-0.0000E00
293.28	-0.0000E00
293.49	-0.0000E00
293.70	-0.0000E00
293.92	-0.0000E00
294.13	-0.0000E00
294.34	-0.0000E00
294.56	-0.0000E00
294.77	-0.0000E00
294.98	-0.0000E00
295.20	-0.0000E00
295.41	-0.0000E00
295.62	-0.0000E00
295.83	-0.0000E00
296.05	-0.0000E00
296.26	-0.0000E00
296.47	-0.0000E00
296.69	-0.0000E00
296.90	-0.0000E00
297.11	-0.0000E00
297.32	-0.0000E00
297.54	-0.0000E00
297.75	-0.0000E00
297.96	-0.0000E00
298.17	-0.0000E00
298.39	-0.0000E00
298.60	-0.0000E00
298.81	-0.0000E00
299.03	-0.0000E00
299.24	-0.0000E00
299.45	-0.0000E00
299.66	-0.0000E00
299.88	-0.0000E00
300.09	-1.2934E-02
300.30	-1.7410E-02
300.51	-7.7335E-03
300.73	-1.7369E-02
300.94	-1.3098E-02
301.15	-9.3697E-03
301.36	-1.8309E-02
301.58	-1.4504E-02
301.79	1.7523E-03
302.00	-1.1865E-02
302.21	-1.3703E-02
302.43	-5.8832E-03
302.64	-1.4384E-02
302.85	-4.9667E-03
303.06	-1.6174E-02
303.28	-5.7632E-03
303.49	-1.3305E-02
303.70	-2.1810E-04
303.91	-1.0891E-02
304.13	-1.3117E-02
304.34	-8.3813E-03
304.55	9.6568E-04
304.76	-1.4692E-02
304.98	-1.0348E-02
305.19	-5.3086E-04
305.40	-1.2462E-02
305.61	-3.1474E-03
305.82	-9.7133E-03
306.04	-1.2593E-03
306.25	-1.3452E-02
306.46	6.9962E-04
306.67	-1.0628E-02
306.89	-8.3873E-03
307.10	-8.7713E-04
307.31	-2.5248E-03
307.52	-5.8470E-03
307.74	2.4428E-03
307.95	2.3366E-03
308.16	-1.4486E-02
308.37	-3.7467E-03
308.58	-6.2337E-03
308.80	9.5470E-04
309.01	-1.1906E-03
309.22	-1.2604E-02
309.43	-7.6166E-03
309.64	7.4858E-04
309.86	7.3521E-03
310.07	-2.0578E-03
310.28	1.2668E-03
310.49	2.7402E-03
310.70	-5.8620E-03
310.92	4.3392E-03
311.13	-9.0406E-04
311.34	1.2836E-03
311.55	2.4078E-03
311.76	1.5555E-03
311.98	1.3815E-02
312.19	1.6796E-03
312.40	-3.6095E-03
312.61	-9.3896E-05
312.82	6.6358E-03
313.04	-1.4836E-03
313.25	7.4036E-03
313.46	5.2354E-04
313.67	1.4214E-03
313.88	3.9832E-03
314.10	6.9560E-04
314.31	1.3981E-03
314.52	2.4822E-03
314.73	5.7996E-03
314.94	1.2830E-02
315.16	1.4732E-02
315.37	2.2027E-02
315.58	6.4915E-03
315.79	1.4300E-02
316.00	1.7176E-02
316.21	2.1748E-02
316.43	4.8358E-03
316.64	1.0522E-02
316.85	8.0512E-03
317.06	1.6561E-02
317.27	2.1400E-02
317.48	1.2178E-02
317.70	1.5076E-02
317.91	1.3141E-02
318.12	2.2147E-02
318.33	1.0569E-02
318.54	1.4137E-02
318.75	1.6367E-02
318.97	2.4306E-02
319.18	1.6631E-02
319.39	1.4124E-02
319.60	1.5492E-02
319.81	2.1502E-02
320.02	1.3297E-02
320.24	1.3311E-02
320.45	1.7807E-02
320.66	6.8644E-03
320.87	1.5783E-02
321.08	2.3162E-02
321.29	2.2494E-02
321.50	1.4011E-02
321.72	1.1899E-02
321.93	2.5971E-02
322.14	1.6748E-02
322.35	2.6749E-02
322.56	2.7681E-02
322.77	3.1718E-02
322.98	2.0762E-02
323.20	3.1167E-02
323.41	1.6934E-02
323.62	1.6103E-02
323.83	2.5739E-02
324.04	1.8809E-02
324.25	1.9064E-02
324.46	2.5042E-02
324.67	2.8724E-02
324.89	2.5460E-02
325.10	2.4613E-02
325.31	3.7550E-02
325.52	3.2000E-02
325.73	2.5553E-02
325.94	2.9932E-02
326.15	2.2144E-02
326.36	3.9913E-02
326.58	4.3599E-02
326.79	4.1365E-02
327.00	2.0698E-02
327.21	4.0285E-02
327.42	3.9700E-02
327.63	3.9851E-02
327.84	3.6765E-02
328.05	4.4809E-02
328.26	2.5470E-02
328.48	3.8097E-02
328.69	4.3135E-02
328.90	3.7474E-02
329.11	3.6852E-02
329.32	3.7895E-02
329.53	3.1755E-02
329.74	3.6704E-02
329.95	4.4272E-02
330.16	4.0701E-02
330.37	3.5157E-02
330.59	5.3996E-02
330.80	4.2989E-02
331.01	4.4771E-02
331.22	4.3444E-02
331.43	3.4415E-02
331.64	3.3959E-02
331.85	5.0266E-02
332.06	4.7228E-02
332.27	3.4386E-02
332.48	4.6572E-02
332.69	5.1540E-02
332.91	4.4819E-02
333.12	4.3244E-02
333.33	5.6587E-02
333.54	3.5696E-02
333.75	3.1620E-02
333.96	3.6772E-02
334.17	3.4319E-02
334.38	3.6205E-02
334.59	4.3538E-02
334.80	4.5073E-02
335.01	4.2677E-02
335.22	3.6915E-02
335.43	3.4613E-02
335.64	3.7705E-02
335.86	4.1598E-02
336.07	4.1103E-02
336.28	2.8743E-02
336.49	4.3186E-02
336.70	3.3332E-02
336.91	3.3858E-02
337.12	3.1345E-02
337.33	4.7212E-02
337.54	3.6909E-02
337.75	3.4922E-02
337.96	4.5585E-02
338.17	4.4637E-02
338.38	3.2634E-02
338.59	4.7476E-02
338.80	3.1080E-02
339.01	4.8851E-02
339.22	4.6986E-02
339.43	4.7655E-02
339.65	4.1031E-02
339.86	3.6041E-02
340.07	3.5465E-02
340.28	4.4299E-02
340.49	4.3809E-02
340.70	4.6048E-02
340.91	3.6125E-02
341.12	3.2234E-02
341.33	4.3056E-02
341.54	4.7430E-02
341.75	3.7855E-02
341.96	4.1468E-02
342.17	4.4751E-02
342.38	3.8805E-02
342.59	4.2490E-02
342.80	3.4762E-02
343.01	4.0836E-02
343.22	3.9248E-02
343.43	3.5620E-02
343.64	3.2220E-02
343.85	4.0549E-02
344.06	2.7997E-02
344.27	3.9034E-02
344.48	4.7489E-02
344.69	3.9602E-02
344.90	4.1524E-02
345.11	3.6701E-02
345.32	3.5115E-02
345.53	2.6021E-02
345.74	4.1930E-02
345.95	2.9310E-02
346.16	3.7763E-02
346.37	3.7148E-02
346.58	3.6668E-02
346.79	3.0213E-02
347.00	4.1144E-02
347.21	4.2498E-02
347.42	3.3524E-02
347.63	2.8132E-02
347.84	3.8081E-02
348.05	4.2837E-02
348.26	3.7069E-02
348.47	4.0042E-02
348.68	3.9066E-02
348.89	2.7847E-02
349.10	3.6098E-02
349.31	3.9490E-02
349.52	3.4308E-02
349.73	3.7274E-02
349.94	3.8671E-02
350.15	3.2236E-02
350.36	4.7148E-02
350.57	4.4228E-02
350.78	4.5613E-02
350.99	4.5791E-02
351.20	3.9573E-02
351.41	4.5414E-02
351.62	4.0764E-02
351.83	4.2176E-02
352.04	4.1525E-02
352.25	4.7421E-02
352.46	4.2864E-02
352.67	3.8810E-02
352.88	5.2363E-02
353.09	3.0503E-02
353.30	4.1372E-02
353.51	4.2942E-02
353.72	5.1009E-02
353.93	4.0929E-02
354.14	3.6076E-02
354.35	4.8843E-02
354.56	3.9696E-02
354.77	5.2967E-02
354.98	3.1828E-02
355.19	3.8317E-02
355.39	4.0147E-02
355.60	3.7132E-02
355.81	4.1633E-02
356.02	4.3964E-02
356.23	3.1570E-02
356.44	2.8710E-02
356.65	4.2335E-02
356.86	3.4839E-02
357.07	3.3206E-02
357.28	4.1319E-02
357.49	3.6871E-02
357.70	4.0687E-02
357.91	3.0025E-02
358.12	2.9766E-02
358.33	3.8586E-02
358.54	4.1354E-02
358.75	3.6216E-02
358.96	4.2505E-02
359.16	2.8866E-02
359.37	4.6121E-02
359.58	4.1238E-02
359.79	3.7734E-02
360.00	3.8570E-02
360.21	4.0313E-02
360.42	3.8178E-02
360.63	5.7685E-02
360.84	4.8416E-02
361.05	3.3062E-02
361.26	4.3355E-02
361.47	5.2252E-02
361.68	4.3403E-02
361.88	4.8790E-02
362.09	4.2439E-02
362.30	4.9309E-02
362.51	4.6115E-02
362.72	5.8253E-02
362.93	4.9028E-02
363.14	5.1585E-02
363.35	4.8934E-02
363.56	4.7436E-02
363.77	5.8895E-02
363.98	5.5322E-02
364.18	6.2335E-02
364.39	5.9896E-02
364.60	5.4720E-02
364.81	5.7733E-02
365.02	6.0000E-02
365.23	6.2025E-02
365.44	6.1806E-02
365.65	6.0476E-02
365.86	5.0478E-02
366.07	6.8514E-02
366.27	6.1437E-02
366.48	6.5327E-02
366.69	6.1922E-02
366.90	6.9085E-02
367.11	6.5203E-02
367.32	6.6686E-02
367.53	6.0876E-02
367.74	5.6982E-02
367.95	5.7147E-02
368.15	6.1123E-02
368.36	6.5837E-02
368.57	5.2274E-02
368.78	7.1574E-02
368.99	5.9581E-02
369.20	5.8094E-02
369.41	6.4532E-02
369.62	5.9935E-02
369.82	6.9224E-02
370.03	6.0368E-02
370.24	6.3432E-02
370.45	5.8604E-02
370.66	5.3090E-02
370.87	5.3275E-02
371.08	5.5351E-02
371.28	5.4871E-02
371.49	5.5484E-02
371.70	5.4146E-02
371.91	5.4288E-02
372.12	4.8652E-02
372.33	4.8846E-02
372.54	5.4271E-02
372.74	5.2614E-02
372.95	4.1498E-02
373.16	5.5417E-02
373.37	5.7894E-02
373.58	4.2475E-02
373.79	5.5143E-02
374.00	5.0989E-02
374.20	6.1388E-02
374.41	5.9135E-02
374.62	5.2977E-02
374.83	5.2646E-02
375.04	5.5113E-02
375.25	5.6588E-02
375.45	4.1295E-02
375.66	5.9069E-02
375.87	5.7818E-02
376.08	6.2007E-02
376.29	6.0682E-02
376.50	5.8847E-02
376.70	5.6922E-02
376.91	6.2949E-02
377.12	6.4493E-02
377.33	5.2992E-02
377.54	5.5246E-02
377.75	6.3485E-02
377.95	5.7511E-02
378.16	6.0043E-02
378.37	5.3754E-02
378.58	6.3147E-02
378.79	4.8735E-02
379.00	6.3330E-02
379.20	5.3595E-02
379.41	5.7797E-02
379.62	5.9734E-02
379.83	5.3813E-02
380.04	5.5094E-02
380.24	4.9974E-02
380.45	4.3043E-02
380.66	4.5416E-02
380.87	4.9927E-02
381.08	5.0773E-02
381.28	4.1713E-02
381.49	4.7745E-02
381.70	4.0163E-02
381.91	4.2463E-02
382.12	4.7313E-02
382.32	4.0347E-02
382.53	4.6049E-02
382.74	3.7243E-02
382.95	4.0518E-02
383.16	4.3730E-02
383.36	3.1640E-02
383.57	4.2941E-02
383.78	4.6520E-02
383.99	3.8480E-02
384.20	4.1330E-02
384.40	4.2055E-02
384.61	4.8601E-02
384.82	5.1372E-02
385.03	4.4804E-02
385.23	4.7130E-02
385.44	4.7835E-02
385.65	5.1869E-02
385.86	4.2888E-02
386.07	5.9986E-02
386.27	3.9850E-02
386.48	4.7462E-02
386.69	5.3276E-02
386.90	3.5556E-02
387.10	4.6846E-02
387.31	5.4330E-02
387.52	4.7823E-02
387.73	5.2301E-02
387.94	5.7271E-02
388.14	4.4066E-02
388.35	4.9135E-02
388.56	6.5372E-02
388.77	5.7621E-02
388.97	5.8451E-02
389.18	6.4478E-02
389.39	5.5087E-02
389.60	5.7717E-02
389.80	6.4666E-02
390.01	6.1111E-02
390.22	6.0237E-02
390.43	4.9423E-02
390.63	5.2980E-02
390.84	5.2375E-02
391.05	6.4002E-02
391.26	5.3350E-02
391.46	5.1214E-02
391.67	5.1055E-02
391.88	4.2210E-02
392.09	4.1637E-02
392.29	5.2863E-02
392.50	4.5072E-02
392.71	4.9098E-02
392.92	5.0817E-02
393.12	4.9414E-02
393.33	5.4622E-02
393.54	4.6363E-02
393.74	4.1184E-02
393.95	4.5089E-02
394.16	5.4047E-02
394.37	4.7429E-02
394.57	4.8627E-02
394.78	5.4620E-02
394.99	5.0129E-02
395.19	4.9054E-02
395.40	4.9006E-02
395.61	4.8890E-02
395.82	5.7597E-02
396.02	5.2405E-02
396.23	5.8822E-02
396.44	6.0930E-02
396.65	5.6840E-02
396.85	6.5240E-02
397.06	6.1987E-02
397.27	6.6220E-02
397.47	7.1640E-02
397.68	6.6661E-02
397.89	6.4716E-02
398.09	6.3959E-02
398.30	7.1409E-02
398.51	6.5832E-02
398.72	7.4058E-02
398.92	8.1460E-02
399.13	8.2842E-02
399.34	8.8917E-02
399.54	9.1217E-02
399.75	8.7709E-02
399.96	8.1883E-02
400.16	8.2133E-02
400.37	9.0019E-02
400.58	8.9474E-02
400.78	9.2426E-02
400.99	8.8710E-02
401.20	9.6465E-02
401.41	9.4224E-02
401.61	8.6844E-02
401.82	9.3151E-02
402.03	8.7690E-02
402.23	8.7113E-02
402.44	9.5598E-02
402.65	9.0293E-02
402.85	9.1455E-02
403.06	9.1446E-02
403.27	9.4384E-02
403.47	9.2225E-02
403.68	8.7189E-02
403.89	9.3764E-02
404.09	8.8319E-02
404.30	8.2704E-02
404.51	9.3613E-02
404.71	9.2237E-02
404.92	9.6960E-02
405.13	8.0107E-02
405.33	8.6185E-02
405.54	8.7545E-02
405.75	8.9987E-02
405.95	8.8314E-02
406.16	7.8483E-02
406.37	8.8490E-02
406.57	8.9269E-02
406.78	9.1712E-02
406.99	8.9896E-02
407.19	9.3218E-02
407.40	9.7583E-02
407.60	9.3973E-02
407.81	9.2818E-02
408.02	8.5965E-02
408.22	8.7902E-02
408.43	9.6335E-02
408.64	9.3910E-02
408.84	9.1933E-02
409.05	8.4526E-02
409.26	9.6110E-02
409.46	9.8869E-02
409.67	9.0905E-02
409.87	9.5808E-02
410.08	9.3514E-02
410.29	1.0257E-01
410.49	8.7558E-02
410.70	9.8671E-02
410.91	9.5627E-02
411.11	1.0217E-01
411.32	9.8887E-02
411.52	9.0795E-02
411.73	1.0216E-01
411.94	1.0133E-01
412.14	1.0367E-01
412.35	9.7432E-02
412.56	1.0381E-01
412.76	1.0295E-01
412.97	9.6879E-02
413.17	1.0097E-01
413.38	1.0596E-01
413.59	9.6530E-02
413.79	9.9054E-02
414.00	1.0230E-01
414.20	1.0395E-01
414.41	9.4347E-02
414.62	1.0144E-01
414.82	9.7033E-02
415.03	9.1283E-02
415.23	1.0147E-01
415.44	9.3023E-02
415.65	9.9693E-02
415.85	9.2384E-02
416.06	1.0084E-01
416.26	9.7382E-02
416.47	9.9030E-02
416.68	1.0343E-01
416.88	1.0529E-01
417.09	8.6341E-02
417.29	9.6451E-02
417.50	1.0015E-01
417.71	9.7638E-02
417.91	9.5735E-02
418.12	9.4243E-02
418.32	1.0149E-01
418.53	1.0117E-01
418.73	9.4089E-02
418.94	9.4925E-02
419.15	9.3188E-02
419.35	1.0357E-01
419.56	9.8218E-02
419.76	8.9496E-02
419.97	1.0360E-01
420.17	9.8389E-02
420.38	8.6481E-02
420.59	1.0128E-01
420.79	1.0177E-01
421.00	9.5014E-02
421.20	8.6586E-02
421.41	9.4454E-02
421.61	9.1786E-02
421.82	9.6281E-02
422.02	9.3550E-02
422.23	8.2131E-02
422.44	1.0098E-01
422.64	9.1221E-02
422.85	9.3490E-02
423.05	9.4708E-02
423.26	9.5823E-02
423.46	9.4022E-02
423.67	9.1295E-02
423.87	9.1802E-02
424.08	8.9512E-02
424.29	8.9283E-02
424.49	9.6327E-02
424.70	8.5103E-02
424.90	9.4337E-02
425.11	9.5105E-02
425.31	9.3231E-02
425.52	9.5812E-02
425.72	8.8933E-02
425.93	9.1836E-02
426.13	8.7517E-02
426.34	8.9365E-02
426.54	8.8460E-02
426.75	8.9905E-02
426.95	8.9084E-02
427.16	8.8798E-02
427.36	8.7348E-02
427.57	8.2129E-02
427.78	8.0616E-02
427.98	8.0511E-02
428.19	8.1971E-02
428.39	7.6699E-02
428.60	7.7597E-02
428.80	7.8954E-02
429.01	8.3032E-02
429.21	7.1971E-02
429.42	8.7299E-02
429.62	8.4837E-02
429.83	8.0098E-02
430.03	7.3991E-02
430.24	8.3343E-02
430.44	7.5178E-02
430.65	8.1019E-02
430.85	8.2843E-02
431.06	7.6501E-02
431.26	8.5888E-02
431.47	7.5825E-02
431.67	9.1807E-02
431.88	8.7274E-02
432.08	8.9985E-02
432.29	9.0848E-02
432.49	8.5491E-02
432.70	8.5631E-02
432.90	9.6189E-02
433.11	9.4477E-02
433.31	8.1934E-02
433.52	9.1406E-02
433.72	8.8318E-02
433.93	9.1694E-02
434.13	9.0900E-02
434.34	1.0088E-01
434.54	8.9956E-02
434.74	9.3064E-02
434.95	9.5552E-02
435.15	9.2501E-02
435.36	9.6034E-02
435.56	9.0842E-02
435.77	9.7768E-02
435.97	9.0672E-02
436.18	1.0887E-01
436.38	9.9956E-02
436.59	9.5368E-02
436.79	1.0276E-01
437.00	1.0089E-01
437.20	9.7110E-02
437.41	9.5823E-02
437.61	9.9451E-02
437.81	9.8563E-02
438.02	9.8248E-02
438.22	1.0198E-01
438.43	9.4054E-02
438.63	1.0706E-01
438.84	9.7334E-02
439.04	9.8661E-02
439.25	1.0065E-01
439.45	9.5448E-02
439.66	9.6564E-02
439.86	9.8283E-02
440.06	1.0848E-01
440.27	9.9585E-02
440.47	9.4823E-02
440.68	1.0700E-01
440.88	1.0281E-01
441.09	1.0858E-01
441.29	1.0781E-01
441.49	1.0699E-01
441.70	1.1342E-01
441.90	1.0932E-01
442.11	1.1248E-01
442.31	1.1625E-01
442.52	1.0902E-01
442.72	1.0852E-01
442.92	1.0307E-01
443.13	1.1232E-01
443.33	1.0059E-01
443.54	1.0856E-01
443.74	1.0751E-01
443.95	1.1314E-01
444.15	1.0919E-01
444.35	1.1381E-01
444.56	1.0794E-01
444.76	1.0378E-01
444.97	1.1770E-01
445.17	1.1283E-01
445.37	1.2023E-01
445.58	1.0798E-01
445.78	1.1114E-01
445.99	1.0439E-01
446.19	1.0460E-01
446.39	1.0686E-01
446.60	1.0284E-01
446.80	1.0320E-01
447.01	1.1149E-01
447.21	1.1711E-01
447.41	1.0724E-01
447.62	1.1570E-01
447.82	1.1175E-01
448.03	1.1520E-01
448.23	1.1448E-01
448.43	1.1597E-01
448.64	1.1805E-01
448.84	1.1698E-01
449.05	1.1387E-01
449.25	1.1816E-01
449.45	1.1188E-01
449.66	1.1445E-01
449.86	1.1570E-01
450.07	1.0984E-01
450.27	1.1488E-01
450.47	1.1213E-01
450.68	1.1477E-01
450.88	1.1140E-01
451.08	1.1455E-01
451.29	1.1704E-01
451.49	1.1671E-01
451.70	1.1526E-01
451.90	1.1795E-01
452.10	1.1707E-01
452.31	1.0939E-01
452.51	1.1750E-01
452.71	1.1548E-01
452.92	1.1387E-01
453.12	1.1938E-01
453.32	1.1444E-01
453.53	1.0496E-01
453.73	1.0679E-01
453.93	1.0773E-01
454.14	1.1892E-01
454.34	1.1628E-01
454.55	1.1918E-01
454.75	1.1678E-01
454.95	1.1264E-01
455.16	1.2278E-01
455.36	1.1382E-01
455.56	1.2430E-01
455.77	1.2126E-01
455.97	1.1821E-01
456.17	1.1488E-01
456.38	1.1886E-01
456.58	1.2462E-01
456.78	1.1729E-01
456.99	1.1107E-01
457.19	1.1673E-01
457.39	1.1577E-01
457.60	1.1807E-01
457.80	1.1649E-01
458.00	1.1459E-01
458.21	1.2115E-01
458.41	1.1961E-01
458.61	1.1542E-01
458.82	1.1443E-01
459.02	1.1089E-01
459.22	1.2262E-01
459.43	1.2006E-01
459.63	1.1767E-01
459.83	1.1395E-01
460.03	1.1716E-01
460.24	1.2040E-01
460.44	1.1402E-01
460.64	1.1016E-01
460.85	1.1732E-01
461.05	1.1648E-01
461.25	1.1735E-01
461.46	1.1403E-01
461.66	1.1118E-01
461.86	1.1675E-01
462.07	1.1984E-01
462.27	1.1728E-01
462.47	1.2200E-01
462.67	1.1590E-01
462.88	1.1896E-01
463.08	1.1051E-01
463.28	1.1680E-01
463.49	1.2114E-01
463.69	1.1703E-01
463.89	1.1822E-01
464.09	1.1903E-01
464.30	1.1438E-01
464.50	1.2027E-01
464.70	1.2095E-01
464.91	1.0973E-01
465.11	1.1101E-01
465.31	1.1157E-01
465.51	1.1774E-01
465.72	1.1524E-01
465.92	1.1491E-01
466.12	1.1092E-01
466.33	1.1724E-01
466.53	1.1496E-01
466.73	1.1185E-01
466.93	1.1736E-01
467.14	1.1187E-01
467.34	1.2367E-01
467.54	1.1706E-01
467.74	1.1770E-01
467.95	1.1600E-01
468.15	1.1293E-01
468.35	1.1734E-01
468.55	1.2039E-01
468.76	1.2007E-01
468.96	1.0897E-01
469.16	1.1668E-01
469.37	1.1591E-01
469.57	1.1642E-01
469.77	1.1182E-01
469.97	1.1591E-01
470.18	1.1866E-01
470.38	1.1988E-01
470.58	1.1646E-01
470.78	1.1883E-01
470.99	1.1768E-01
471.19	1.1427E-01
471.39	1.1717E-01
471.59	1.1153E-01
471.79	1.1550E-01
472.00	1.1652E-01
472.20	1.1900E-01
472.40	1.1407E-01
472.60	1.1431E-01
472.81	1.2167E-01
473.01	1.1941E-01
473.21	1.1486E-01
473.41	1.0807E-01
473.62	1.1969E-01
473.82	1.2221E-01
474.02	1.1502E-01
474.22	1.1590E-01
474.42	1.2470E-01
474.63	1.1901E-01
474.83	1.1591E-01
475.03	1.1688E-01
475.23	1.1865E-01
475.44	1.1548E-01
475.64	1.1729E-01
475.84	1.1879E-01
476.04	1.1675E-01
476.24	1.1814E-01
476.45	1.1939E-01
476.65	1.1625E-01
476.85	1.1541E-01
477.05	1.1989E-01
477.25	1.2197E-01
477.46	1.1897E-01
477.66	1.1779E-01
477.86	1.2199E-01
478.06	1.2220E-01
478.26	1.2266E-01
478.47	1.2075E-01
478.67	1.2679E-01
478.87	1.2038E-01
479.07	1.1685E-01
479.27	1.2145E-01
479.47	1.2332E-01
479.68	1.2262E-01
479.88	1.2341E-01
480.08	1.2242E-01
480.28	1.2356E-01
480.48	1.2306E-01
480.69	1.2436E-01
480.89	1.2209E-01
481.09	1.2284E-01
481.29	1.2828E-01
481.49	1.1528E-01
481.69	1.2470E-01
481.90	1.2210E-01
482.10	1.2316E-01
482.30	1.2644E-01
482.50	1.2331E-01
482.70	1.1971E-01
482.90	1.2010E-01
483.11	1.1963E-01
483.31	1.1939E-01
483.51	1.1226E-01
483.71	1.1350E-01
483.91	1.1429E-01
484.11	1.1425E-01
484.32	1.1419E-01
484.52	1.1583E-01
484.72	1.1527E-01
484.92	1.1405E-01
485.12	1.1303E-01
485.32	1.1194E-01
485.52	1.1128E-01
485.73	1.0717E-01
485.93	1.0596E-01
486.13	1.0666E-01
486.33	1.0838E-01
486.53	1.1070E-01
486.73	1.1162E-01
486.93	1.1018E-01
487.14	1.1537E-01
487.34	1.1500E-01
487.54	1.1494E-01
487.74	1.1758E-01
487.94	1.1023E-01
488.14	1.1632E-01
488.34	1.1618E-01
488.54	1.1546E-01
488.75	1.1505E-01
488.95	1.1614E-01
489.15	1.1537E-01
489.35	1.1417E-01
489.55	1.1465E-01
489.75	1.1677E-01
489.95	1.1520E-01
490.15	1.1540E-01
490.36	1.1788E-01
490.56	1.1616E-01
490.76	1.1951E-01
490.96	1.1858E-01
491.16	1.1925E-01
491.36	1.1819E-01
491.56	1.1722E-01
491.76	1.1189E-01
491.96	1.1735E-01
492.17	1.1646E-01
492.37	1.1846E-01
492.57	1.2035E-01
492.77	1.2029E-01
492.97	1.2291E-01
493.17	1.2042E-01
493.37	1.1956E-01
493.57	1.1894E-01
493.77	1.1896E-01
493.97	1.2340E-01
494.17	1.1974E-01
494.38	1.2115E-01
494.58	1.1895E-01
494.78	1.1942E-01
494.98	1.1908E-01
495.18	1.2162E-01
495.38	1.2135E-01
495.58	1.2284E-01
495.78	1.2283E-01
495.98	1.2476E-01
496.18	1.2404E-01
496.38	1.2130E-01
496.58	1.1757E-01
496.78	1.2399E-01
496.99	1.1958E-01
497.19	1.2355E-01
497.39	1.2493E-01
497.59	1.2229E-01
497.79	1.1875E-01
497.99	1.2181E-01
498.19	1.2288E-01
498.39	1.2342E-01
498.59	1.1965E-01
498.79	1.1893E-01
498.99	1.1877E-01
499.19	1.2116E-01
499.39	1.2125E-01
499.59	1.1857E-01
499.79	1.1837E-01
499.99	1.1810E-01
500.19	1.2145E-01
500.40	1.1825E-01
500.60	1.2074E-01
500.80	1.1996E-01
501.00	1.1866E-01
501.20	1.1744E-01
501.40	1.2203E-01
501.60	1.1881E-01
501.80	1.1911E-01
502.00	1.2121E-01
502.20	1.1964E-01
502.40	1.1955E-01
502.60	1.1616E-01
502.80	1.2353E-01
503.00	1.2150E-01
503.20	1.1931E-01
503.40	1.1790E-01
503.60	1.1974E-01
503.80	1.2326E-01
504.00	1.2117E-01
504.20	1.2416E-01
504.40	1.2351E-01
504.60	1.2591E-01
504.80	1.2566E-01
505.00	1.2483E-01
505.20	1.2759E-01
505.40	1.2543E-01
505.60	1.2464E-01
505.80	1.2645E-01
506.00	1.2640E-01
506.20	1.2565E-01
506.40	1.2556E-01
506.60	1.2605E-01
506.80	1.2421E-01
507.00	1.2709E-01
507.20	1.2874E-01
507.40	1.3068E-01
507.60	1.2756E-01
507.80	1.2929E-01
508.00	1.3003E-01
508.20	1.3342E-01
508.40	1.3122E-01
508.60	1.2850E-01
508.80	1.2665E-01
509.00	1.3444E-01
509.20	1.3180E-01
509.40	1.3064E-01
509.60	1.3240E-01
509.80	1.3037E-01
510.00	1.3499E-01
510.20	1.3414E-01
510.40	1.3531E-01
510.60	1.3258E-01
510.80	1.3124E-01
511.00	1.3073E-01
511.20	1.3642E-01
511.40	1.3213E-01
511.60	1.3291E-01
511.80	1.3398E-01
512.00	1.3404E-01
512.20	1.3588E-01
512.40	1.3342E-01
512.60	1.3473E-01
512.80	1.3492E-01
513.00	1.3750E-01
513.20	1.3629E-01
513.40	1.3453E-01
513.59	1.3275E-01
513.79	1.3640E-01
513.99	1.3505E-01
514.19	1.3623E-01
514.39	1.3432E-01
514.59	1.3727E-01
514.79	1.3471E-01
514.99	1.3440E-01
515.19	1.3590E-01
515.39	1.3701E-01
515.59	1.3780E-01
515.79	1.3277E-01
515.99	1.3929E-01
516.19	1.3838E-01
516.39	1.3725E-01
516.59	1.3855E-01
516.79	1.4192E-01
516.98	1.3743E-01
517.18	1.4264E-01
517.38	1.4257E-01
517.58	1.4302E-01
517.78	1.4381E-01
517.98	1.4504E-01
518.18	1.4724E-01
518.38	1.5348E-01
518.58	1.5016E-01
518.78	1.5059E-01
518.98	1.5193E-01
519.18	1.5505E-01
519.38	1.5916E-01
519.57	1.5906E-01
519.77	1.5732E-01
519.97	1.6212E-01
520.17	1.6178E-01
520.37	1.6303E-01
520.57	1.6603E-01
520.77	1.6807E-01
520.97	1.6821E-01
521.17	1.6801E-01
521.37	1.7184E-01
521.57	1.7452E-01
521.76	1.7184E-01
521.96	1.7544E-01
522.16	1.7485E-01
522.36	1.7962E-01
522.56	1.7401E-01
522.76	1.7771E-01
522.96	1.8178E-01
523.16	1.7995E-01
523.36	1.8318E-01
523.55	1.7986E-01
523.75	1.8109E-01
523.95	1.8192E-01
524.15	1.8002E-01
524.35	1.8240E-01
524.55	1.8350E-01
524.75	1.8625E-01
524.95	1.8770E-01
525.14	1.8594E-01
525.34	1.8537E-01
525.54	1.8299E-01
525.74	1.8634E-01
525.94	1.8791E-01
526.14	1.9166E-01
526.34	1.9141E-01
526.54	1.9533E-01
526.73	1.9093E-01
526.93	1.9651E-01
527.13	1.9771E-01
527.33	1.9867E-01
527.53	2.0158E-01
527.73	1.9981E-01
527.93	2.0369E-01
528.12	2.0012E-01
528.32	2.0282E-01
528.52	2.0827E-01
528.72	2.1037E-01
528.92	2.0818E-01
529.12	2.0875E-01
529.32	2.1095E-01
529.51	2.1286E-01
529.71	2.1412E-01
529.91	2.1429E-01
530.11	2.1698E-01
530.31	2.2061E-01
530.51	2.1652E-01
530.70	2.1581E-01
530.90	2.1929E-01
531.10	2.1751E-01
531.30	2.1998E-01
531.50	2.2027E-01
531.70	2.2167E-01
531.89	2.1829E-01
532.09	2.1944E-01
532.29	2.1880E-01
532.49	2.2388E-01
532.69	2.2205E-01
532.88	2.2113E-01
533.08	2.1879E-01
533.28	2.2202E-01
533.48	2.2660E-01
533.68	2.2453E-01
533.88	2.2969E-01
534.07	2.2905E-01
534.27	2.2902E-01
534.47	2.3204E-01
534.67	2.2635E-01
534.87	2.3228E-01
535.06	2.3265E-01
535.26	2.3031E-01
535.46	2.2910E-01
535.66	2.3720E-01
535.86	2.3141E-01
536.05	2.3143E-01
536.25	2.3336E-01
536.45	2.3464E-01
536.65	2.3433E-01
536.85	2.3277E-01
537.04	2.3572E-01
537.24	2.3990E-01
537.44	2.3168E-01
537.64	2.2969E-01
537.83	2.3682E-01
538.03	2.3764E-01
538.23	2.4047E-01
538.43	2.3941E-01
538.63	2.3458E-01
538.82	2.3689E-01
539.02	2.3710E-01
539.22	2.3950E-01
539.42	2.3607E-01
539.61	2.3976E-01
539.81	2.4053E-01
540.01	2.3661E-01
540.21	2.3959E-01
540.41	2.3857E-01
540.60	2.4047E-01
540.80	2.4047E-01
541.00	2.4107E-01
541.20	2.4524E-01
541.39	2.4451E-01
541.59	2.4380E-01
541.79	2.4508E-01
541.99	2.4881E-01
542.18	2.4638E-01
542.38	2.4595E-01
542.58	2.4582E-01
542.78	2.4821E-01
542.97	2.4382E-01
543.17	2.4886E-01
543.37	2.4578E-01
543.57	2.5168E-01
543.76	2.5551E-01
543.96	2.5339E-01
544.16	2.4985E-01
544.36	2.5248E-01
544.55	2.5776E-01
544.75	2.5448E-01
544.95	2.5758E-01
545.14	2.4954E-01
545.34	2.5773E-01
545.54	2.5348E-01
545.74	2.5515E-01
545.93	2.5852E-01
546.13	2.5743E-01
546.33	2.5420E-01
546.53	2.5353E-01
546.72	2.6024E-01
546.92	2.6011E-01
547.12	2.5701E-01
547.31	2.6009E-01
547.51	2.5852E-01
547.71	2.6311E-01
547.91	2.6312E-01
548.10	2.5705E-01
548.30	2.6035E-01
548.50	2.6661E-01
548.69	2.6499E-01
548.89	2.6377E-01
549.09	2.6414E-01
549.29	2.6232E-01
549.48	2.7176E-01
549.68	2.6224E-01
549.88	2.6844E-01
550.07	2.7016E-01
550.27	2.6929E-01
550.47	2.5144E-01
550.66	2.7568E-01
550.86	2.6538E-01
551.06	2.7559E-01
551.25	2.6884E-01
551.45	2.7537E-01
551.65	2.7570E-01
551.85	2.7900E-01
552.04	2.6772E-01
552.24	2.7417E-01
552.44	2.7042E-01
552.63	2.6950E-01
552.83	2.7373E-01
553.03	2.6826E-01
553.22	2.7788E-01
553.42	2.7200E-01
553.62	2.7979E-01
553.81	2.7207E-01
554.01	2.7629E-01
554.21	2.7075E-01
554.40	2.7501E-01
554.60	2.7301E-01
554.80	2.7599E-01
554.99	2.7571E-01
555.19	2.7545E-01
555.39	2.7651E-01
555.58	2.7226E-01
555.78	2.7404E-01
555.98	2.7223E-01
556.17	2.7209E-01
556.37	2.7336E-01
556.56	2.7376E-01
556.76	2.7343E-01
556.96	2.6964E-01
557.15	2.7178E-01
557.35	2.6949E-01
557.55	2.6908E-01
557.74	2.6821E-01
557.94	2.7215E-01
558.14	2.7416E-01
558.33	2.6822E-01
558.53	2.6711E-01
558.73	2.7046E-01
558.92	2.6613E-01
559.12	2.7457E-01
559.31	2.7484E-01
559.51	2.7778E-01
559.71	2.7242E-01
559.90	2.7582E-01
560.10	2.7536E-01
560.30	2.7440E-01
560.49	2.7169E-01
560.69	2.7550E-01
560.88	2.7930E-01
561.08	2.7065E-01
561.28	2.7205E-01
561.47	2.7664E-01
561.67	2.7688E-01
561.86	2.7309E-01
562.06	2.7492E-01
562.26	2.7774E-01
562.45	2.7405E-01
562.65	2.7710E-01
562.84	2.7016E-01
563.04	2.7263E-01
563.24	2.7130E-01
563.43	2.7678E-01
563.63	2.7694E-01
563.82	2.7327E-01
564.02	2.7582E-01
564.22	2.7736E-01
564.41	2.7019E-01
564.61	2.7416E-01
564.80	2.7493E-01
565.00	2.7100E-01
565.20	2.7669E-01
565.39	2.6872E-01
565.59	2.6538E-01
565.78	2.7047E-01
565.98	2.6496E-01
566.18	2.7355E-01
566.37	2.6983E-01
566.57	2.6703E-01
566.76	2.6437E-01
566.96	2.7058E-01
567.15	2.6463E-01
567.35	2.7239E-01
567.55	2.6695E-01
567.74	2.6749E-01
567.94	2.6352E-01
568.13	2.6737E-01
568.33	2.7059E-01
568.52	2.6922E-01
568.72	2.6481E-01
568.91	2.6254E-01
569.11	2.6313E-01
569.31	2.6837E-01
569.50	2.6050E-01
569.70	2.6485E-01
569.89	2.6258E-01
570.09	2.6074E-01
570.28	2.5871E-01
570.48	2.6104E-01
570.67	2.6584E-01
570.87	2.5735E-01
571.07	2.5729E-01
571.26	2.6268E-01
571.46	2.6129E-01
571.65	2.6289E-01
571.85	2.6444E-01
572.04	2.6087E-01
572.24	2.6658E-01
572.43	2.6034E-01
572.63	2.6553E-01
572.82	2.6064E-01
573.02	2.6504E-01
573.21	2.6010E-01
573.41	2.6328E-01
573.60	2.6698E-01
573.80	2.6421E-01
573.99	2.6136E-01
574.19	2.6697E-01
574.38	2.6262E-01
574.58	2.6401E-01
574.78	2.5824E-01
574.97	2.6470E-01
575.17	2.6231E-01
575.36	2.5919E-01
575.56	2.5588E-01
575.75	2.6416E-01
575.95	2.5865E-01
576.14	2.5618E-01
576.34	2.6278E-01
576.53	2.5657E-01
576.73	2.5769E-01
576.92	2.5278E-01
577.12	2.6236E-01
577.31	2.4953E-01
577.51	2.6226E-01
577.70	2.5766E-01
577.90	2.5746E-01
578.09	2.6008E-01
578.29	2.5515E-01
578.48	2.6144E-01
578.68	2.5712E-01
578.87	2.6578E-01
579.06	2.5582E-01
579.26	2.5987E-01
579.45	2.5653E-01
579.65	2.6652E-01
579.84	2.5986E-01
580.04	2.6413E-01
580.23	2.6660E-01
580.43	2.5663E-01
580.62	2.6330E-01
580.82	2.6377E-01
581.01	2.6185E-01
581.21	2.6126E-01
581.40	2.6011E-01
581.60	2.6638E-01
581.79	2.6785E-01
581.99	2.6188E-01
582.18	2.6202E-01
582.37	2.6533E-01
582.57	2.6518E-01
582.76	2.6802E-01
582.96	2.6857E-01
583.15	2.6753E-01
583.35	2.6714E-01
583.54	2.6713E-01
583.74	2.6509E-01
583.93	2.6056E-01
584.12	2.5717E-01
584.32	2.6644E-01
584.51	2.6249E-01
584.71	2.5625E-01
584.90	2.5751E-01
585.10	2.5788E-01
585.29	2.5862E-01
585.49	2.5885E-01
585.68	2.6052E-01
585.87	2.5749E-01
586.07	2.5558E-01
586.26	2.5346E-01
586.46	2.5306E-01
586.65	2.5066E-01
586.85	2.5300E-01
587.04	2.4332E-01
587.23	2.5190E-01
587.43	2.4873E-01
587.62	2.3801E-01
587.82	2.4710E-01
588.01	2.4177E-01
588.20	2.4287E-01
588.40	2.3728E-01
588.59	2.4203E-01
588.79	2.4265E-01
588.98	2.4548E-01
589.18	2.4061E-01
589.37	2.4444E-01
589.56	2.3730E-01
589.76	2.3546E-01
589.95	2.4519E-01
590.15	2.4138E-01
590.34	2.3775E-01
590.53	2.4644E-01
590.73	2.4160E-01
590.92	2.4210E-01
591.11	2.4691E-01
591.31	2.4738E-01
591.50	2.5075E-01
591.70	2.4851E-01
591.89	2.5453E-01
592.08	2.4619E-01
592.28	2.4427E-01
592.47	2.5336E-01
592.67	2.5203E-01
592.86	2.5232E-01
593.05	2.4573E-01
593.25	2.5405E-01
593.44	2.5094E-01
593.63	2.5768E-01
593.83	2.5084E-01
594.02	2.5955E-01
594.22	2.5900E-01
594.41	2.6212E-01
594.60	2.5600E-01
594.80	2.5736E-01
594.99	2.5802E-01
595.18	2.5812E-01
595.38	2.5608E-01
595.57	2.5864E-01
595.76	2.6036E-01
595.96	2.5916E-01
596.15	2.5354E-01
596.34	2.6816E-01
596.54	2.6673E-01
596.73	2.6264E-01
596.93	2.6570E-01
597.12	2.6190E-01
597.31	2.6669E-01
597.51	2.6290E-01
597.70	2.6429E-01
597.89	2.6242E-01
598.09	2.6050E-01
598.28	2.7287E-01
598.47	2.6303E-01
598.67	2.6519E-01
598.86	2.6076E-01
599.05	2.7032E-01
599.25	2.6598E-01
599.44	2.6907E-01
599.63	2.7229E-01
599.83	2.6522E-01
600.02	2.6599E-01
600.21	2.6677E-01
600.41	2.6885E-01
600.60	2.6162E-01
600.79	2.6727E-01
600.98	2.6807E-01
601.18	2.7500E-01
601.37	2.6465E-01
601.56	2.6695E-01
601.76	2.7964E-01
601.95	2.6803E-01
602.14	2.7102E-01
602.34	2.7079E-01
602.53	2.7682E-01
602.72	2.6998E-01
602.92	2.7497E-01
603.11	2.7143E-01
603.30	2.7576E-01
603.49	2.7102E-01
603.69	2.8063E-01
603.88	2.7547E-01
604.07	2.7928E-01
604.27	2.7516E-01
604.46	2.6976E-01
604.65	2.7542E-01
604.84	2.7395E-01
605.04	2.7717E-01
605.23	2.7451E-01
605.42	2.7465E-01
605.62	2.7709E-01
605.81	2.7168E-01
606.00	2.7278E-01
606.19	2.7691E-01
606.39	2.7687E-01
606.58	2.7140E-01
606.77	2.7267E-01
606.97	2.6879E-01
607.16	2.7577E-01
607.35	2.7764E-01
607.54	2.7361E-01
607.74	2.7980E-01
607.93	2.8067E-01
608.12	2.7339E-01
608.31	2.7623E-01
608.51	2.7757E-01
608.70	2.7368E-01
608.89	2.7236E-01
609.08	2.6875E-01
609.28	2.7445E-01
609.47	2.7544E-01
609.66	2.7611E-01
609.85	2.7714E-01
610.05	2.7817E-01
610.24	2.7145E-01
610.43	2.7443E-01
610.62	2.7237E-01
610.82	2.6971E-01
611.01	2.7397E-01
611.20	2.7095E-01
611.39	2.7150E-01
611.59	2.7020E-01
611.78	2.7289E-01
611.97	2.7078E-01
612.16	2.7697E-01
612.35	2.6846E-01
612.55	2.6966E-01
612.74	2.7415E-01
612.93	2.7271E-01
613.12	2.6438E-01
613.32	2.6934E-01
613.51	2.7112E-01
613.70	2.6996E-01
613.89	2.7095E-01
614.08	2.7249E-01
614.28	2.7040E-01
614.47	2.6730E-01
614.66	2.6946E-01
614.85	2.7373E-01
615.04	2.7273E-01
615.24	2.7852E-01
615.43	2.7287E-01
615.62	2.7003E-01
615.81	2.7118E-01
616.00	2.6375E-01
616.20	2.7097E-01
616.39	2.7109E-01
616.58	2.7098E-01
616.77	2.7140E-01
616.96	2.8083E-01
617.16	2.8080E-01
617.35	2.7793E-01
617.54	2.7336E-01
617.73	2.7220E-01
617.92	2.7287E-01
618.12	2.8006E-01
618.31	2.7819E-01
618.50	2.7990E-01
618.69	2.7704E-01
618.88	2.8732E-01
619.07	2.8148E-01
619.27	2.8455E-01
619.46	2.8501E-01
619.65	2.9200E-01
619.84	2.8344E-01
620.03	2.8238E-01
620.22	2.9126E-01
620.42	2.7826E-01
620.61	2.9373E-01
620.80	2.9063E-01
620.99	2.8930E-01
621.18	2.9617E-01
621.37	2.8614E-01
621.57	2.7808E-01
621.76	2.8882E-01
621.95	2.8673E-01
622.14	2.8091E-01
622.33	2.7690E-01
622.52	2.8206E-01
622.71	2.8675E-01
622.91	2.8848E-01
623.10	2.8675E-01
623.29	2.8432E-01
623.48	2.8133E-01
623.67	2.8615E-01
623.86	2.8600E-01
624.05	2.8510E-01
624.25	2.7907E-01
624.44	2.8621E-01
624.63	2.9115E-01
624.82	2.8647E-01
625.01	2.8300E-01
625.20	2.9012E-01
625.39	2.8058E-01
625.58	2.8981E-01
625.78	2.9184E-01
625.97	2.7955E-01
626.16	2.8559E-01
626.35	2.8458E-01
626.54	2.9171E-01
626.73	2.9169E-01
626.92	2.8776E-01
627.11	2.8678E-01
627.31	2.8666E-01
627.50	2.8519E-01
627.69	2.8975E-01
627.88	2.9207E-01
628.07	2.7429E-01
628.26	2.8412E-01
628.45	2.8093E-01
628.64	2.8362E-01
628.83	2.8289E-01
629.02	2.7147E-01
629.22	2.9299E-01
629.41	2.8041E-01
629.60	2.7158E-01
629.79	2.8824E-01
629.98	2.8075E-01
630.17	2.8566E-01
630.36	2.8398E-01
630.55	2.8459E-01
630.74	2.8672E-01
630.93	2.9167E-01
631.12	2.7995E-01
631.31	2.8088E-01
631.51	2.9022E-01
631.70	2.8895E-01
631.89	2.8166E-01
632.08	2.8423E-01
632.27	2.8725E-01
632.46	2.8577E-01
632.65	2.8659E-01
632.84	2.7950E-01
633.03	2.9401E-01
633.22	2.8632E-01
633.41	2.9333E-01
633.60	2.9355E-01
633.79	2.8799E-01
633.98	2.7849E-01
634.17	2.8784E-01
634.37	2.8753E-01
634.56	2.9361E-01
634.75	2.8170E-01
634.94	2.9270E-01
635.13	2.8721E-01
635.32	2.9413E-01
635.51	2.9326E-01
635.70	2.8494E-01
635.89	3.0189E-01
636.08	2.8987E-01
636.27	2.8488E-01
636.46	2.9467E-01
636.65	2.8911E-01
636.84	2.8309E-01
637.03	2.9339E-01
637.22	2.9249E-01
637.41	2.8912E-01
637.60	2.9265E-01
637.79	2.9293E-01
637.98	2.9012E-01
638.17	2.8960E-01
638.36	2.8325E-01
638.55	2.7718E-01
638.74	2.7849E-01
638.93	2.8099E-01
639.12	2.7829E-01
639.31	2.7967E-01
639.50	2.7595E-01
639.69	2.7322E-01
639.88	2.8129E-01
640.07	2.7349E-01
640.26	2.8176E-01
640.45	2.7733E-01
640.64	2.7931E-01
640.83	2.7824E-01
641.02	2.8472E-01
641.21	2.7588E-01
641.40	2.6467E-01
641.59	2.7731E-01
641.78	2.7965E-01
641.97	2.7799E-01
642.16	2.8219E-01
642.35	2.7971E-01
642.54	2.7939E-01
642.73	2.7492E-01
642.92	2.5878E-01
643.11	2.7820E-01
643.30	2.7950E-01
643.49	2.7003E-01
643.68	2.7242E-01
643.87	2.6384E-01
644.06	2.7174E-01
644.25	2.6484E-01
644.44	2.6621E-01
644.63	2.6383E-01
644.82	2.6344E-01
645.01	2.6726E-01
645.20	2.6596E-01
645.39	2.6063E-01
645.58	2.5751E-01
645.77	2.5702E-01
645.96	2.6421E-01
646.15	2.5677E-01
646.34	2.5843E-01
646.53	2.5583E-01
646.72	2.5772E-01
646.91	2.4972E-01
647.10	2.6514E-01
647.29	2.5328E-01
647.47	2.5820E-01
647.66	2.5181E-01
647.85	2.4783E-01
648.04	2.4843E-01
648.23	2.4820E-01
648.42	2.6401E-01
648.61	2.4225E-01
648.80	2.5127E-01
648.99	2.5697E-01
649.18	2.4519E-01
649.37	2.5591E-01
649.56	2.5145E-01
649.75	2.4884E-01
649.94	2.5760E-01
650.13	2.5500E-01
650.31	2.5674E-01
650.50	2.5175E-01
650.69	2.5617E-01
650.88	2.5129E-01
651.07	2.5251E-01
651.26	2.5573E-01
651.45	2.6595E-01
651.64	2.5850E-01
651.83	2.5012E-01
652.02	2.5592E-01
652.21	2.5094E-01
652.40	2.5156E-01
652.58	2.6621E-01
652.77	2.4964E-01
652.96	2.4597E-01
653.15	2.5558E-01
653.34	2.5331E-01
653.53	2.5329E-01
653.72	2.5159E-01
653.91	2.4204E-01
654.10	2.4534E-01
654.29	2.3818E-01
654.47	2.5211E-01
654.66	2.3267E-01
654.85	2.3609E-01
655.04	2.2978E-01
655.23	2.3755E-01
655.42	2.2563E-01
655.61	2.3426E-01
655.80	2.3204E-01
655.98	2.3881E-01
656.17	2.3745E-01
656.36	2.4034E-01
656.55	2.3473E-01
656.74	2.4675E-01
656.93	2.4417E-01
657.12	2.4535E-01
657.31	2.3635E-01
657.49	2.5355E-01
657.68	2.4855E-01
657.87	2.3564E-01
658.06	2.5619E-01
658.25	2.4457E-01
658.44	2.5384E-01
658.63	2.4867E-01
658.81	2.4588E-01
659.00	2.5343E-01
659.19	2.4956E-01
659.38	2.6373E-01
659.57	2.6389E-01
659.76	2.5420E-01
659.95	2.6635E-01
660.13	2.4792E-01
660.32	2.6005E-01
660.51	2.5617E-01
660.70	2.6363E-01
660.89	2.5674E-01
661.08	2.5955E-01
661.26	2.5359E-01
661.45	2.6097E-01
661.64	2.5449E-01
661.83	2.5276E-01
662.02	2.5551E-01
662.21	2.6143E-01
662.39	2.6462E-01
662.58	2.5584E-01
662.77	2.6910E-01
662.96	2.6216E-01
663.15	2.5355E-01
663.33	2.6650E-01
663.52	2.5676E-01
663.71	2.5729E-01
663.90	2.5765E-01
664.09	2.4864E-01
664.28	2.5446E-01
664.46	2.4864E-01
664.65	2.5053E-01
664.84	2.4468E-01
665.03	2.5368E-01
665.22	2.5769E-01
665.40	2.5751E-01
665.59	2.5242E-01
665.78	2.5122E-01
665.97	2.5066E-01
666.16	2.5759E-01
666.34	2.6266E-01
666.53	2.5116E-01
666.72	2.6287E-01
666.91	2.5601E-01
667.09	2.5631E-01
667.28	2.6232E-01
667.47	2.6055E-01
667.66	2.5698E-01
667.85	2.5636E-01
668.03	2.3044E-01
668.22	2.6322E-01
668.41	2.5694E-01
668.60	2.4061E-01
668.78	2.6193E-01
668.97	2.5447E-01
669.16	2.4792E-01
669.35	2.6111E-01
669.54	2.4709E-01
669.72	2.6147E-01
669.91	2.5412E-01
670.10	2.5737E-01
670.29	2.5631E-01
670.47	2.6115E-01
670.66	2.6426E-01
670.85	2.5598E-01
671.04	2.4676E-01
671.22	2.4648E-01
671.41	2.5540E-01
671.60	2.5515E-01
671.79	2.5600E-01
671.97	2.5000E-01
672.16	2.6381E-01
672.35	2.5918E-01
672.54	2.5903E-01
672.72	2.5209E-01
672.91	2.4579E-01
673.10	2.5141E-01
673.28	2.4695E-01
673.47	2.4826E-01
673.66	2.4915E-01
673.85	2.6165E-01
674.03	2.5342E-01
674.22	2.5185E-01
674.41	2.4540E-01
674.60	2.4586E-01
674.78	2.3543E-01
674.97	2.4184E-01
675.16	2.6502E-01
675.34	2.5533E-01
675.53	2.4803E-01
675.72	2.4201E-01
675.91	2.6249E-01
676.09	2.5267E-01
676.28	2.5926E-01
676.47	2.5530E-01
676.65	2.4257E-01
676.84	2.5215E-01
677.03	2.5852E-01
677.22	2.4784E-01
677.40	2.5657E-01
677.59	2.5278E-01
677.78	2.4900E-01
677.96	2.5366E-01
678.15	2.6012E-01
678.34	2.6902E-01
678.52	2.5048E-01
678.71	2.5387E-01
678.90	2.5494E-01
679.08	2.5896E-01
679.27	2.4915E-01
679.46	2.6623E-01
679.64	2.5887E-01
679.83	2.5467E-01
680.02	2.5610E-01
680.21	2.4002E-01
680.39	2.6385E-01
680.58	2.5651E-01
680.77	2.5419E-01
680.95	2.5489E-01
681.14	2.4303E-01
681.33	2.5570E-01
681.51	2.6245E-01
681.70	2.5893E-01
681.89	2.6297E-01
682.07	2.5570E-01
682.26	2.4075E-01
682.44	2.5969E-01
682.63	2.5771E-01
682.82	2.6306E-01
683.00	2.3898E-01
683.19	2.5371E-01
683.38	2.5841E-01
683.56	2.6089E-01
683.75	2.5555E-01
683.94	2.4266E-01
684.12	2.4109E-01
684.31	2.5392E-01
684.50	2.5564E-01
684.68	2.4233E-01
684.87	2.4233E-01
685.05	2.4486E-01
685.24	2.3113E-01
685.43	2.3884E-01
685.61	2.3791E-01
685.80	2.2749E-01
685.99	2.3770E-01
686.17	2.2436E-01
686.36	2.3892E-01
686.54	2.3791E-01
686.73	2.3236E-01
686.92	2.3254E-01
687.10	2.2712E-01
687.29	2.3720E-01
687.48	2.2547E-01
687.66	2.4331E-01
687.85	2.2867E-01
688.03	2.3437E-01
688.22	2.2349E-01
688.41	2.3894E-01
688.59	2.2493E-01
688.78	2.4175E-01
688.96	2.4640E-01
689.15	2.5479E-01
689.34	2.2776E-01
689.52	2.5981E-01
689.71	2.4974E-01
689.89	2.5737E-01
690.08	2.6852E-01
690.27	2.5927E-01
690.45	2.5556E-01
690.64	2.5529E-01
690.82	2.4985E-01
691.01	2.6265E-01
691.19	2.5866E-01
691.38	2.6555E-01
691.57	2.7301E-01
691.75	2.6254E-01
691.94	2.7838E-01
692.12	2.6983E-01
692.31	2.8163E-01
692.50	2.7375E-01
692.68	2.8169E-01
692.87	2.9007E-01
693.05	2.8491E-01
693.24	2.7437E-01
693.42	2.8227E-01
693.61	2.9067E-01
693.79	2.9920E-01
693.98	2.8817E-01
694.17	2.9711E-01
694.35	3.0944E-01
694.54	3.1114E-01
694.72	3.0626E-01
694.91	3.0911E-01
695.09	3.1203E-01
695.28	3.1448E-01
695.46	3.1864E-01
695.65	3.2222E-01
695.83	3.2616E-01
696.02	3.3502E-01
696.21	3.3963E-01
696.39	3.3085E-01
696.58	3.4070E-01
696.76	3.1820E-01
696.95	3.3251E-01
697.13	3.3628E-01
697.32	3.4299E-01
697.50	3.4306E-01
697.69	3.4760E-01
697.87	3.5565E-01
698.06	3.5773E-01
698.24	3.4815E-01
698.43	3.5450E-01
698.61	3.7313E-01
698.80	3.6449E-01
698.98	3.7440E-01
699.17	3.5113E-01
699.35	3.7218E-01
699.54	3.6814E-01
699.72	3.5589E-01
699.91	3.8129E-01
700.09	3.8198E-01
700.28	3.8653E-01
700.46	3.8840E-01
700.65	3.8592E-01
700.83	3.9594E-01
701.02	4.0205E-01
701.20	3.7827E-01
701.39	4.1163E-01
701.57	4.0389E-01
701.76	3.9394E-01
701.94	4.0542E-01
702.13	4.1113E-01
702.31	3.9160E-01
702.50	4.3933E-01
702.68	4.3063E-01
702.87	4.4022E-01
703.05	4.4214E-01
703.24	4.3863E-01
703.42	4.1369E-01
703.61	4.5146E-01
703.79	4.6010E-01
703.98	4.4073E-01
704.16	4.5183E-01
704.35	4.4938E-01
704.53	4.6071E-01
704.72	4.6336E-01
704.90	4.7063E-01
705.08	4.5858E-01
705.27	4.8379E-01
705.45	4.8238E-01
705.64	4.9071E-01
705.82	4.8884E-01
706.01	4.9196E-01
706.19	4.8697E-01
706.38	4.9427E-01
706.56	5.1407E-01
706.75	5.1328E-01
706.93	5.1062E-01
707.11	4.9683E-01
707.30	5.2098E-01
707.48	5.2040E-01
707.67	5.1020E-01
707.85	5.1930E-01
708.04	5.3084E-01
708.22	5.3107E-01
708.40	5.2451E-01
708.59	5.2160E-01
708.77	5.4748E-01
708.96	5.4307E-01
709.14	5.5235E-01
709.33	5.4869E-01
709.51	5.6075E-01
709.69	5.6342E-01
709.88	5.6953E-01
710.06	5.6786E-01
710.25	5.6006E-01
710.43	5.7305E-01
710.62	5.8404E-01
710.80	5.7846E-01
710.98	5.8809E-01
711.17	5.8524E-01
711.35	5.9324E-01
711.54	5.9981E-01
711.72	5.8975E-01
711.90	6.0553E-01
712.09	6.0646E-01
712.27	5.9058E-01
712.46	6.0486E-01
712.64	5.9535E-01
712.82	6.1672E-01
713.01	6.1844E-01
713.19	6.1756E-01
713.37	6.0845E-01
713.56	6.0531E-01
713.74	6.1935E-01
713.93	6.0863E-01
714.11	6.0140E-01
714.29	5.8626E-01
714.48	6.0681E-01
714.66	6.0291E-01
714.85	5.8819E-01
715.03	5.8815E-01
715.21	5.8179E-01
715.40	5.6872E-01
715.58	5.6770E-01
715.76	5.5343E-01
715.95	5.5750E-01
716.13	5.7035E-01
716.31	5.5810E-01
716.50	5.4861E-01
716.68	5.3611E-01
716.87	5.4496E-01
717.05	5.4227E-01
717.23	5.2439E-01
717.42	5.3437E-01
717.60	5.2619E-01
717.78	5.3210E-01
717.97	5.3101E-01
718.15	5.2659E-01
718.33	5.2291E-01
718.52	5.3593E-01
718.70	5.4469E-01
718.88	5.3433E-01
719.07	5.6679E-01
719.25	5.5086E-01
719.43	5.6294E-01
719.62	5.6192E-01
719.80	5.6706E-01
719.98	5.8848E-01
720.17	5.8443E-01
720.35	5.8862E-01
720.53	6.0758E-01
720.72	6.1697E-01
720.90	6.1044E-01
721.08	6.0805E-01
721.27	6.1666E-01
721.45	6.1925E-01
721.63	6.1960E-01
721.82	6.3099E-01
722.00	6.2220E-01
722.18	6.2356E-01
722.36	6.4054E-01
722.55	6.3651E-01
722.73	6.3777E-01
722.91	6.3739E-01
723.10	6.4834E-01
723.28	6.3988E-01
723.46	6.1693E-01
723.65	6.3537E-01
723.83	6.3636E-01
724.01	6.3256E-01
724.19	6.4511E-01
724.38	6.4602E-01
724.56	6.5279E-01
724.74	6.6154E-01
724.93	6.3911E-01
725.11	6.4631E-01
725.29	6.6514E-01
725.47	6.6526E-01
725.66	6.6869E-01
725.84	6.6744E-01
726.02	6.7383E-01
726.21	6.8939E-01
726.39	6.7739E-01
726.57	6.8532E-01
726.75	6.8297E-01
726.94	7.0258E-01
727.12	6.9113E-01
727.30	6.9191E-01
727.48	6.8840E-01
727.67	7.0885E-01
727.85	7.0243E-01
728.03	7.1317E-01
728.21	7.2763E-01
728.40	7.1421E-01
728.58	7.3719E-01
728.76	7.2893E-01
728.94	7.4104E-01
729.13	7.5332E-01
729.31	7.4029E-01
729.49	7.5711E-01
729.67	7.6131E-01
729.86	7.7183E-01
730.04	7.6092E-01
730.22	7.8785E-01
730.40	7.8983E-01
730.59	7.9815E-01
730.77	8.0759E-01
730.95	8.2799E-01
731.13	8.2734E-01
731.31	8.3786E-01
731.50	8.2679E-01
731.68	8.6287E-01
731.86	8.5764E-01
732.04	8.7290E-01
732.23	8.9154E-01
732.41	8.8835E-01
732.59	8.9994E-01
732.77	9.0696E-01
732.95	9.1362E-01
733.14	9.1149E-01
733.32	9.3535E-01
733.50	9.3251E-01
733.68	9.3413E-01
733.86	9.3913E-01
734.05	9.5379E-01
734.23	9.6272E-01
734.41	9.4083E-01
734.59	9.5889E-01
734.77	9.6678E-01
734.96	9.5017E-01
735.14	9.8415E-01
735.32	9.8393E-01
735.50	9.8684E-01
735.68	1.0072E00
735.87	9.9674E-01
736.05	1.0209E00
736.23	9.8815E-01
736.41	1.0200E00
736.59	1.0172E00
736.77	1.0152E00
736.96	1.0161E00
737.14	1.0082E00
737.32	1.0353E00
737.50	1.0452E00
737.68	1.0419E00
737.87	1.0501E00
738.05	1.0645E00
738.23	1.0370E00
738.41	1.0522E00
738.59	1.0612E00
738.77	1.0686E00
738.95	1.0836E00
739.14	1.0602E00
739.32	1.0648E00
739.50	1.0928E00
739.68	1.0712E00
739.86	1.0830E00
740.04	1.0818E00
740.23	1.0685E00
740.41	1.0971E00
740.59	1.1037E00
740.77	1.1133E00
740.95	1.1054E00
741.13	1.1035E00
741.31	1.1025E00
741.50	1.1102E00
741.68	1.1096E00
741.86	1.1110E00
742.04	1.1337E00
742.22	1.1427E00
742.40	1.1366E00
742.58	1.1458E00
742.76	1.1522E00
742.95	1.1278E00
743.13	1.1652E00
743.31	1.1601E00
743.49	1.1563E00
743.67	1.1773E00
743.85	1.1736E00
744.03	1.1649E00
744.21	1.1762E00
744.39	1.1620E00
744.58	1.1865E00
744.76	1.1857E00
744.94	1.1984E00
745.12	1.1870E00
745.30	1.1774E00
745.48	1.1940E00
745.66	1.2016E00
745.84	1.1787E00
746.02	1.1809E00
746.20	1.1939E00
746.38	1.2032E00
746.57	1.2211E00
746.75	1.1817E00
746.93	1.2098E00
747.11	1.1905E00
747.29	1.2045E00
747.47	1.2170E00
747.65	1.2132E00
747.83	1.1885E00
748.01	1.2074E00
748.19	1.2117E00
748.37	1.2108E00
748.55	1.2112E00
748.73	1.2043E00
748.92	1.2180E00
749.10	1.2060E00
749.28	1.2265E00
749.46	1.2112E00
749.64	1.2033E00
749.82	1.2118E00
750.00	1.2260E00
750.18	1.2199E00
750.36	1.1981E00
750.54	1.2195E00
750.72	1.2293E00
750.90	1.2285E00
751.08	1.2202E00
751.26	1.2370E00
751.44	1.2388E00
751.62	1.2526E00
751.80	1.2407E00
751.98	1.2495E00
752.16	1.2546E00
752.34	1.2595E00
752.52	1.2677E00
752.71	1.2407E00
752.89	1.2385E00
753.07	1.2714E00
753.25	1.2421E00
753.43	1.2779E00
753.61	1.2572E00
753.79	1.2866E00
753.97	1.2822E00
754.15	1.2903E00
754.33	1.2992E00
754.51	1.3059E00
754.69	1.3103E00
754.87	1.3014E00
755.05	1.3030E00
755.23	1.3178E00
755.41	1.3277E00
755.59	1.2470E00
755.77	1.2957E00
755.95	1.2905E00
756.13	1.2597E00
756.31	1.2824E00
756.49	1.2735E00
756.67	1.2467E00
756.85	1.2294E00
757.03	1.2067E00
757.21	1.1921E00
757.39	1.1779E00
757.57	1.1606E00
757.75	1.1119E00
757.93	1.0663E00
758.11	1.0538E00
758.29	1.0255E00
758.47	9.8937E-01
758.65	9.7095E-01
758.83	9.7296E-01
759.01	9.3618E-01
759.18	9.0150E-01
759.36	8.4907E-01
759.54	8.5339E-01
759.72	8.1341E-01
759.90	8.1240E-01
760.08	7.9624E-01
760.26	7.8655E-01
760.44	7.5437E-01
760.62	7.3077E-01
760.80	7.2620E-01
760.98	7.5789E-01
761.16	7.5280E-01
761.34	7.3702E-01
761.52	7.6330E-01
761.70	7.3653E-01
761.88	7.4605E-01
762.06	7.5220E-01
762.24	7.5261E-01
762.42	7.6217E-01
762.60	7.6887E-01
762.78	7.8455E-01
762.95	7.8895E-01
763.13	8.1487E-01
763.31	8.3392E-01
763.49	8.3631E-01
763.67	8.5812E-01
763.85	8.5345E-01
764.03	9.0546E-01
764.21	9.0138E-01
764.39	9.3738E-01
764.57	9.7545E-01
764.75	9.8211E-01
764.93	1.0363E00
765.11	1.0227E00
765.28	1.0674E00
765.46	1.0821E00
765.64	1.0922E00
765.82	1.1225E00
766.00	1.1496E00
766.18	1.1686E00
766.36	1.1846E00
766.54	1.1971E00
766.72	1.2165E00
766.90	1.2613E00
767.07	1.2326E00
767.25	1.2683E00
767.43	1.2854E00
767.61	1.3116E00
767.79	1.3251E00
767.97	1.3281E00
768.15	1.3287E00
768.33	1.3256E00
768.51	1.3591E00
768.68	1.3658E00
768.86	1.3596E00
769.04	1.3720E00
769.22	1.4120E00
769.40	1.4099E00
769.58	1.3988E00
769.76	1.4386E00
769.94	1.4361E00
770.11	1.4146E00
770.29	1.4285E00
770.47	1.4281E00
770.65	1.4359E00
770.83	1.4326E00
771.01	1.4467E00
771.19	1.4446E00
771.36	1.4234E00
771.54	1.4474E00
771.72	1.4350E00
771.90	1.4143E00
772.08	1.4387E00
772.26	1.4534E00
772.44	1.4173E00
772.61	1.4392E00
772.79	1.4106E00
772.97	1.4396E00
773.15	1.4554E00
773.33	1.4156E00
773.51	1.4382E00
773.68	1.4149E00
773.86	1.4057E00
774.04	1.4187E00
774.22	1.4008E00
774.40	1.4113E00
774.58	1.4245E00
774.75	1.4191E00
774.93	1.3915E00
775.11	1.4294E00
775.29	1.4055E00
775.47	1.3861E00
775.64	1.4191E00
775.82	1.4030E00
776.00	1.4094E00
776.18	1.3877E00
776.36	1.3890E00
776.53	1.4250E00
776.71	1.3883E00
776.89	1.3821E00
777.07	1.3974E00
777.25	1.3920E00
777.42	1.3910E00
777.60	1.3716E00
777.78	1.3912E00
777.96	1.3760E00
778.14	1.3923E00
778.31	1.3733E00
778.49	1.3421E00
778.67	1.3520E00
778.85	1.3630E00
779.03	1.3729E00
779.20	1.3670E00
779.38	1.3576E00
779.56	1.3346E00
779.74	1.3627E00
779.91	1.3403E00
780.09	1.3330E00
780.27	1.3146E00
780.45	1.3251E00
780.62	1.3402E00
780.80	1.3466E00
780.98	1.3116E00
781.16	1.2940E00
781.34	1.3288E00
781.51	1.3330E00
781.69	1.3363E00
781.87	1.3287E00
782.05	1.3195E00
782.22	1.3205E00
782.40	1.3037E00
782.58	1.3114E00
782.76	1.2887E00
782.93	1.3143E00
783.11	1.3262E00
783.29	1.2913E00
783.47	1.2916E00
783.64	1.2993E00
783.82	1.2816E00
784.00	1.2564E00
784.17	1.2763E00
784.35	1.2787E00
784.53	1.2665E00
784.71	1.2794E00
784.88	1.2618E00
785.06	1.2878E00
785.24	1.2576E00
785.42	1.2726E00
785.59	1.2593E00
785.77	1.2206E00
785.95	1.2337E00
786.12	1.2146E00
786.30	1.2356E00
786.48	1.2281E00
786.65	1.2138E00
786.83	1.2173E00
787.01	1.2186E00
787.19	1.2076E00
787.36	1.2125E00
787.54	1.2016E00
787.72	1.2052E00
787.89	1.1990E00
788.07	1.1899E00
788.25	1.1812E00
788.42	1.1722E00
788.60	1.1942E00
788.78	1.1703E00
788.96	1.1724E00
789.13	1.1527E00
789.31	1.1540E00
789.49	1.1533E00
789.66	1.1710E00
789.84	1.1464E00
790.02	1.1157E00
790.19	1.1398E00
790.37	1.1489E00
790.55	1.1374E00
790.72	1.1385E00
790.90	1.1595E00
791.08	1.1255E00
791.25	1.1297E00
791.43	1.1321E00
791.61	1.1187E00
791.78	1.1147E00
791.96	1.0907E00
792.14	1.1127E00
792.31	1.1225E00
792.49	1.0812E00
792.67	1.1293E00
792.84	1.0937E00
793.02	1.0951E00
793.19	1.0874E00
793.37	1.1128E00
793.55	1.1123E00
793.72	1.1041E00
793.90	1.0713E00
794.08	1.0900E00
794.25	1.0955E00
794.43	1.0760E00
794.61	1.0915E00
794.78	1.0894E00
794.96	1.0634E00
795.13	1.0876E00
795.31	1.0926E00
795.49	1.0645E00
795.66	1.0823E00
795.84	1.0732E00
796.01	1.0812E00
796.19	1.0665E00
796.37	1.0867E00
796.54	1.0756E00
796.72	1.0853E00
796.90	1.0694E00
797.07	1.0483E00
797.25	1.0677E00
797.42	1.0826E00
797.60	1.0769E00
797.78	1.0656E00
797.95	1.0456E00
798.13	1.0342E00
798.30	1.0613E00
798.48	1.0503E00
798.66	1.0696E00
798.83	1.0276E00
799.01	1.0485E00
799.18	1.0316E00
799.36	1.0598E00
799.53	1.0046E00
799.71	1.0448E00
799.89	1.0202E00
800.06	1.0214E00
800.24	1.0226E00
800.41	9.9205E-01
800.59	1.0342E00
800.76	9.9653E-01
800.94	9.9548E-01
801.12	1.0161E00
801.29	1.0100E00
801.47	1.0159E00
801.64	9.8591E-01
801.82	1.0116E00
801.99	1.0063E00
802.17	1.0070E00
802.34	9.9684E-01
802.52	9.9593E-01
802.70	1.0083E00
802.87	9.7927E-01
803.05	9.6740E-01
803.22	1.0159E00
803.40	9.8716E-01
803.57	9.8634E-01
803.75	1.0128E00
803.92	9.9391E-01
804.10	9.6528E-01
804.27	9.6895E-01
804.45	9.8796E-01
804.63	9.8042E-01
804.80	9.6993E-01
804.98	9.8932E-01
805.15	9.5615E-01
805.33	1.0064E00
805.50	1.0125E00
805.68	1.0036E00
805.85	1.0133E00
806.03	9.9261E-01
806.20	9.9706E-01
806.38	9.4365E-01
806.55	9.5761E-01
806.73	1.0048E00
806.90	9.7373E-01
807.08	9.6421E-01
807.25	9.4026E-01
807.43	9.6804E-01
807.60	9.7993E-01
807.78	9.4599E-01
807.95	9.1941E-01
808.13	9.3029E-01
808.30	9.2053E-01
808.48	9.5172E-01
808.65	9.3697E-01
808.83	9.6818E-01
809.00	9.3707E-01
809.18	9.6346E-01
809.35	9.1501E-01
809.53	9.4658E-01
809.70	9.2653E-01
809.88	9.2737E-01
810.05	9.1697E-01
810.23	9.2879E-01
810.40	9.1180E-01
810.57	9.0498E-01
810.75	8.7820E-01
810.92	8.7165E-01
811.10	8.7387E-01
811.27	8.4489E-01
811.45	8.5393E-01
811.62	8.3774E-01
811.80	8.1894E-01
811.97	8.3727E-01
812.15	8.3513E-01
812.32	8.2809E-01
812.50	7.7763E-01
812.67	8.4040E-01
812.84	7.7488E-01
813.02	7.9105E-01
813.19	7.8113E-01
813.37	7.7808E-01
813.54	7.4875E-01
813.72	7.5442E-01
813.89	7.2494E-01
814.07	7.4144E-01
814.24	7.4458E-01
814.41	7.4605E-01
814.59	7.0714E-01
814.76	6.9640E-01
814.94	7.1437E-01
815.11	7.2290E-01
815.29	6.5663E-01
815.46	6.6712E-01
815.63	6.7541E-01
815.81	6.7325E-01
815.98	6.2399E-01
816.16	6.2942E-01
816.33	6.6781E-01
816.50	6.8102E-01
816.68	6.6197E-01
816.85	6.4342E-01
817.03	6.6158E-01
817.20	6.4728E-01
817.37	6.6544E-01
817.55	6.4462E-01
817.72	6.5678E-01
817.90	6.2465E-01
818.07	6.5258E-01
818.24	6.1925E-01
818.42	6.3461E-01
818.59	6.3368E-01
818.77	6.3604E-01
818.94	6.6624E-01
819.11	6.2963E-01
819.29	6.7426E-01
819.46	6.6900E-01
819.64	6.2751E-01
819.81	6.8902E-01
819.98	6.8130E-01
820.16	6.4804E-01
820.33	6.7421E-01
820.50	6.6936E-01
820.68	6.4621E-01
820.85	6.6904E-01
821.02	6.5898E-01
821.20	6.3579E-01
821.37	6.6360E-01
821.55	6.2121E-01
821.72	6.4838E-01
821.89	6.5264E-01
822.07	6.7493E-01
822.24	6.7328E-01
822.41	6.1918E-01
822.59	6.9021E-01
822.76	6.8631E-01
822.93	6.4355E-01
823.11	6.5569E-01
823.28	6.6940E-01
823.45	6.5085E-01
823.63	6.5432E-01
823.80	6.7792E-01
823.97	6.1350E-01
824.15	6.8088E-01
824.32	6.5256E-01
824.49	7.0640E-01
824.67	6.6080E-01
824.84	6.7929E-01
825.01	6.7796E-01
825.19	6.7763E-01
825.36	6.7586E-01
825.53	6.9846E-01
825.71	6.8583E-01
825.88	6.9091E-01
826.05	6.5225E-01
826.23	6.8417E-01
826.40	6.6351E-01
826.57	6.6907E-01
826.75	6.5663E-01
826.92	6.4048E-01
827.09	6.3861E-01
827.26	7.0114E-01
827.44	6.7114E-01
827.61	7.0262E-01
827.78	6.8028E-01
827.96	6.3285E-01
828.13	6.9831E-01
828.30	6.7737E-01
828.48	6.6166E-01
828.65	6.5484E-01
828.82	6.6261E-01
828.99	6.6213E-01
829.17	6.6741E-01
829.34	6.1417E-01
829.51	6.5765E-01
829.68	6.9375E-01
829.86	6.8002E-01
830.03	6.5797E-01
830.20	6.7206E-01
830.38	6.6127E-01
830.55	6.3334E-01
830.72	6.7028E-01
830.89	6.2772E-01
831.07	6.2869E-01
831.24	6.2718E-01
831.41	6.4068E-01
831.58	6.6910E-01
831.76	6.9139E-01
831.93	6.7082E-01
832.10	6.7053E-01
832.27	6.2223E-01
832.45	6.2112E-01
832.62	6.6186E-01
832.79	6.3951E-01
832.96	6.6897E-01
833.14	6.2157E-01
833.31	6.8420E-01
833.48	6.5623E-01
833.65	6.3507E-01
833.83	6.8626E-01
834.00	6.9607E-01
834.17	6.5747E-01
834.34	6.7581E-01
834.51	6.5807E-01
834.69	6.4049E-01
834.86	6.8627E-01
835.03	6.5709E-01
835.20	6.8507E-01
835.38	6.6263E-01
835.55	6.6957E-01
835.72	6.5684E-01
835.89	7.2253E-01
836.06	6.5679E-01
836.24	6.5690E-01
836.41	6.4002E-01
836.58	6.9645E-01
836.75	6.9169E-01
836.92	6.8120E-01
837.10	6.5652E-01
837.27	6.7651E-01
837.44	6.5660E-01
837.61	7.0889E-01
837.78	6.6645E-01
837.96	6.9331E-01
838.13	6.7596E-01
838.30	7.0745E-01
838.47	6.9194E-01
838.64	6.8023E-01
838.82	6.7614E-01
838.99	7.2918E-01
839.16	6.7514E-01
839.33	6.7915E-01
839.50	7.2374E-01
839.67	6.9760E-01
839.85	6.4653E-01
840.02	6.8812E-01
840.19	6.6641E-01
840.36	7.1270E-01
840.53	6.5607E-01
840.70	6.4622E-01
840.88	7.0278E-01
841.05	7.1523E-01
841.22	6.8983E-01
841.39	6.8874E-01
841.56	6.9412E-01
841.73	6.8651E-01
841.91	7.0981E-01
842.08	7.0720E-01
842.25	7.0058E-01
842.42	7.1076E-01
842.59	6.9317E-01
842.76	7.3848E-01
842.93	6.9306E-01
843.11	7.0508E-01
843.28	6.9038E-01
843.45	6.9377E-01
843.62	6.5937E-01
843.79	6.6687E-01
843.96	7.1698E-01
844.13	6.8958E-01
844.30	6.8949E-01
844.48	7.1587E-01
844.65	6.5578E-01
844.82	6.3126E-01
844.99	6.6576E-01
845.16	6.5942E-01
845.33	6.6533E-01
845.50	6.5994E-01
845.67	6.2643E-01
845.84	6.5864E-01
846.02	6.3831E-01
846.19	6.5837E-01
846.36	6.6167E-01
846.53	7.0828E-01
846.70	6.7371E-01
846.87	6.2072E-01
847.04	6.7498E-01
847.21	6.7116E-01
847.38	6.7412E-01
847.55	6.7329E-01
847.73	6.3860E-01
847.90	6.5207E-01
848.07	6.1922E-01
848.24	6.3135E-01
848.41	6.1733E-01
848.58	7.1174E-01
848.75	6.3647E-01
848.92	6.8947E-01
849.09	6.4630E-01
849.26	6.2764E-01
849.43	6.0791E-01
849.60	6.2960E-01
849.77	6.5767E-01
849.94	5.3847E-01
850.12	6.5262E-01
850.29	6.2795E-01
850.46	6.1221E-01
850.63	5.9601E-01
850.80	6.2287E-01
850.97	6.1716E-01
851.14	5.7316E-01
851.31	5.3872E-01
851.48	5.8107E-01
851.65	5.9541E-01
851.82	6.2558E-01
851.99	6.0974E-01
852.16	5.3323E-01
852.33	5.9514E-01
852.50	5.7187E-01
852.67	5.7966E-01
852.84	5.9044E-01
853.01	5.6790E-01
853.18	5.9155E-01
853.35	5.4833E-01
853.52	6.2322E-01
853.69	5.6895E-01
853.86	5.3266E-01
854.03	5.2812E-01
854.21	5.8276E-01
854.38	5.6591E-01
854.55	5.8656E-01
854.72	5.9454E-01
854.89	5.3752E-01
855.06	4.9583E-01
855.23	5.5525E-01
855.40	5.9841E-01
855.57	5.2656E-01
855.74	5.4452E-01
855.91	5.5740E-01
856.08	5.2239E-01
856.25	5.5762E-01
856.42	5.4856E-01
856.59	5.4576E-01
856.76	5.6520E-01
856.93	5.5688E-01
857.10	5.5285E-01
857.27	6.0702E-01
857.44	5.6981E-01
857.61	5.6555E-01
857.77	5.2905E-01
857.94	5.3310E-01
858.11	5.2617E-01
858.28	5.9304E-01
858.45	5.2252E-01
858.62	5.6566E-01
858.79	5.4226E-01
858.96	5.4720E-01
859.13	5.5100E-01
859.30	5.7944E-01
859.47	5.3460E-01
859.64	4.8924E-01
859.81	5.7144E-01
859.98	5.7093E-01
860.15	5.4297E-01
860.32	5.2076E-01
860.49	6.1912E-01
860.66	5.5761E-01
860.83	5.6695E-01
861.00	5.5238E-01
861.17	5.6270E-01
861.34	5.6626E-01
861.51	4.8500E-01
861.68	5.6866E-01
861.84	5.5150E-01
862.01	5.1617E-01
862.18	5.2981E-01
862.35	5.5557E-01
862.52	5.5223E-01
862.69	5.2604E-01
862.86	5.4283E-01
863.03	5.5823E-01
863.20	5.3947E-01
863.37	5.4875E-01
863.54	5.0342E-01
863.71	5.0137E-01
863.88	5.1972E-01
864.05	5.1049E-01
864.21	5.3784E-01
864.38	4.8094E-01
864.55	4.6891E-01
864.72	5.4868E-01
864.89	5.0367E-01
865.06	5.3858E-01
865.23	4.9204E-01
865.40	4.6148E-01
865.57	5.3616E-01
865.74	5.0047E-01
865.90	5.1032E-01
866.07	5.0632E-01
866.24	4.5106E-01
866.41	4.4059E-01
866.58	4.5999E-01
866.75	4.6978E-01
866.92	4.7217E-01
867.09	4.7342E-01
867.26	4.7815E-01
867.42	4.3877E-01
867.59	4.1243E-01
867.76	4.8728E-01
867.93	4.5197E-01
868.10	4.6901E-01
868.27	4.0048E-01
868.44	4.7337E-01
868.60	4.8949E-01
868.77	4.7864E-01
868.94	4.5726E-01
869.11	4.5297E-01
869.28	4.9305E-01
869.45	4.0605E-01
869.62	4.7180E-01
869.78	4.5115E-01
869.95	4.1434E-01
870.12	4.3848E-01
870.29	4.6310E-01
870.46	4.7261E-01
870.63	4.3512E-01
870.80	3.9884E-01
870.96	4.3438E-01
871.13	4.2220E-01
871.30	4.6209E-01
871.47	4.6693E-01
871.64	4.6199E-01
871.81	3.6285E-01
871.97	4.8259E-01
872.14	3.9207E-01
872.31	3.7758E-01
872.48	4.1442E-01
872.65	4.5915E-01
872.81	4.1836E-01
872.98	4.7496E-01
873.15	4.5559E-01
873.32	4.5402E-01
873.49	4.1990E-01
873.66	4.4834E-01
873.82	4.2201E-01
873.99	3.9530E-01
874.16	4.3241E-01
874.33	4.0233E-01
874.50	4.3828E-01
874.66	4.1418E-01
874.83	4.2266E-01
875.00	4.1451E-01
875.17	3.5280E-01
875.34	4.4266E-01
875.50	4.0062E-01
875.67	3.8527E-01
875.84	4.0083E-01
876.01	3.8090E-01
876.17	3.6100E-01
876.34	3.6211E-01
876.51	4.3996E-01
876.68	4.1636E-01
876.85	4.0093E-01
877.01	4.2292E-01
877.18	3.7557E-01
877.35	3.9225E-01
877.52	3.8866E-01
877.68	4.1200E-01
877.85	3.7785E-01
878.02	3.9537E-01
878.19	3.7410E-01
878.35	3.8936E-01
878.52	3.8175E-01
878.69	3.8955E-01
878.86	3.3997E-01
879.02	3.6534E-01
879.19	3.2608E-01
879.36	3.4883E-01
879.53	2.9458E-01
879.69	3.4290E-01
879.86	3.9316E-01
880.03	3.8199E-01
880.20	3.3403E-01
880.36	3.9019E-01
880.53	3.2096E-01
880.70	3.9035E-01
880.87	3.4131E-01
881.03	3.3987E-01
881.20	2.8326E-01
881.37	3.3295E-01
881.54	3.4737E-01
881.70	3.7697E-01
881.87	3.2266E-01
882.04	3.2358E-01
882.20	3.2882E-01
882.37	2.8308E-01
882.54	3.4540E-01
882.71	3.3788E-01
882.87	3.7291E-01
883.04	3.1919E-01
883.21	3.1531E-01
883.37	2.9967E-01
883.54	3.2109E-01
883.71	3.0329E-01
883.87	2.8121E-01
884.04	3.5888E-01
884.21	3.0975E-01
884.38	2.8875E-01
884.54	3.7019E-01
884.71	3.6745E-01
884.88	3.0550E-01
885.04	3.2447E-01
885.21	2.9257E-01
885.38	2.8902E-01
885.54	3.7853E-01
885.71	2.9328E-01
885.88	3.2431E-01
886.04	3.0944E-01
886.21	3.1151E-01
886.38	2.8642E-01
886.54	2.9357E-01
886.71	2.6619E-01
886.88	3.3985E-01
887.04	2.4432E-01
887.21	2.7899E-01
887.38	3.1734E-01
887.54	3.0997E-01
887.71	2.3775E-01
887.88	2.5089E-01
888.04	2.9338E-01
888.21	2.9491E-01
888.38	3.1306E-01
888.54	2.8153E-01
888.71	2.8245E-01
888.87	1.8988E-01
889.04	1.8988E-01
>>>>>End Processed Spectral Data<<<<<
